131066.00006103516
131066.00006103516
131066.00006103516
131066.00006103516
131066.00006103516
131066.00006103516
131066.00006103516
131066.00006103516
131066.00006103516
131066.00006103516
131066.00006103516
131066.00006103516
131066.00006103516
131066.00006103516
131066.00006103516
131066.00006103516
131066.00006103516
131066.00006103516
131066.00006103516
131066.00006103516
131066.00006103516
131066.00006103516
131066.00006103516
131066.00006103516
131066.00006103516
131066.00006103516
131066.00006103516
131066.00006103516
131066.00006103516
131066.00006103516
131066.00006103516
131066.00006103516
131066.00006103516
131066.00006103516
131066.00006103516
131066.00006103516
131066.00006103516
131066.00006103516
131066.00006103516
131066.00006103516
131066.00006103516
131066.00006103516
131066.00006103516
131066.00006103516
131066.00006103516
131066.00006103516
131066.00006103516
131066.00006103516
131066.00006103516
131066.00006103516
131066.00006103516
131066.00006103516
131066.00006103516
131066.00006103516
131066.00006103516
131066.00006103516
131066.00006103516
131066.00006103516
131066.00006103516
131066.00006103516
131066.00006103516
131066.00006103516
131066.00006103516
131066.00006103516
131066.00006103516
131066.00006103516
131066.00006103516
131066.00006103516
131066.00006103516
131066.00006103516
131066.00006103516
131066.00006103516
131066.00006103516
131066.00006103516
131066.00006103516
131066.00006103516
131066.00006103516
131066.00006103516
131066.00006103516
131066.00006103516
131066.00006103516
131066.00006103516
131066.00006103516
131066.00006103516
131066.00006103516
131066.00006103516
131066.00006103516
131066.00006103516
131066.00006103516
131066.00006103516
131066.00006103516
131066.00006103516
131066.00006103516
131066.00006103516
131066.00006103516
131066.00006103516
131066.00006103516
131066.00006103516
131066.00006103516
131066.00006103516
131066.00006103516
131066.00006103516
131066.00006103516
131066.00006103516
131066.00006103516
131066.00006103516
131066.00006103516
131066.00006103516
131066.00006103516
131066.00006103516
131066.00006103516
131066.00006103516
131066.00006103516
131066.00006103516
131066.00006103516
131066.00006103516
131066.00006103516
131066.00006103516
131066.00006103516
131066.00006103516
131066.00006103516
131066.00006103516
131066.00006103516
131066.00006103516
131066.00006103516
131066.00006103516
131066.00006103516
131066.00006103516
131066.00006103516
131066.00006103516
131066.00006103516
131066.00006103516
131066.00006103516
131066.00006103516
131066.00006103516
131066.00006103516
131066.00006103516
131066.00006103516
131066.00006103516
131066.00006103516
131066.00006103516
131066.00006103516
131066.00006103516
131066.00006103516
131066.00006103516
131066.00006103516
131066.00006103516
131066.00006103516
131066.00006103516
131066.00006103516
131066.00006103516
131066.00006103516
131066.00006103516
131066.00006103516
131066.00006103516
131066.00006103516
131066.00006103516
131066.00006103516
131066.00006103516
131066.00006103516
131066.00006103516
131066.00006103516
131066.00006103516
131066.00006103516
131066.00006103516
131066.00006103516
131066.00006103516
131066.00006103516
131066.00006103516
131066.00006103516
131066.00006103516
131066.00006103516
131066.00006103516
131066.00006103516
131066.00006103516
131066.00006103516
131066.00006103516
131066.00006103516
131066.00006103516
131066.00006103516
131066.00006103516
131066.00006103516
131066.00006103516
131066.00006103516
131066.00006103516
131066.00006103516
131066.00006103516
131066.00006103516
131066.00006103516
131066.00006103516
131066.00006103516
131066.00006103516
131066.00006103516
131066.00006103516
131066.00006103516
131066.00006103516
131066.00006103516
131066.00006103516
131066.00006103516
131066.00006103516
130834.00360107422
130706.00555419922
130678.00598144531
130758.00476074219
130574.00756835938
130654.00634765625
130858.00323486328
130806.00402832031
130782.00439453125
130990.00122070312
130806.00402832031
130886.00280761719
130730.00518798828
130730.00518798828
130730.00518798828
130886.00280761719
130782.00439453125
130910.00244140625
130910.00244140625
130938.00201416016
130834.00360107422
130834.00360107422
130782.00439453125
130858.00323486328
130654.00634765625
130858.00323486328
130858.00323486328
130806.00402832031
130858.00323486328
130910.00244140625
130834.00360107422
130806.00402832031
130834.00360107422
130834.00360107422
130706.00555419922
130782.00439453125
130834.00360107422
130886.00280761719
130834.00360107422
130962.00164794922
130758.00476074219
130782.00439453125
130962.00164794922
130758.00476074219
130678.00598144531
130834.00360107422
130782.00439453125
130806.00402832031
130858.00323486328
130990.00122070312
130782.00439453125
130806.00402832031
130758.00476074219
130758.00476074219
130706.00555419922
130758.00476074219
130834.00360107422
130806.00402832031
130858.00323486328
130834.00360107422
130758.00476074219
130730.00518798828
130678.00598144531
130782.00439453125
130602.00714111328
130758.00476074219
130782.00439453125
130834.00360107422
130782.00439453125
130834.00360107422
130730.00518798828
130678.00598144531
130806.00402832031
130678.00598144531
130626.00677490234
130706.00555419922
130678.00598144531
130806.00402832031
130706.00555419922
130858.00323486328
130730.00518798828
130782.00439453125
130910.00244140625
130706.00555419922
130602.00714111328
130758.00476074219
130602.00714111328
130782.00439453125
130782.00439453125
130782.00439453125
130730.00518798828
130706.00555419922
130858.00323486328
130678.00598144531
130550.00793457031
130654.00634765625
130706.00555419922
130678.00598144531
130678.00598144531
130782.00439453125
130678.00598144531
130550.00793457031
130782.00439453125
130626.00677490234
130498.00872802734
130602.00714111328
130654.00634765625
130706.00555419922
130550.00793457031
130782.00439453125
130626.00677490234
130678.00598144531
130858.00323486328
130678.00598144531
130574.00756835938
130782.00439453125
130678.00598144531
130678.00598144531
130706.00555419922
130806.00402832031
130654.00634765625
130758.00476074219
130834.00360107422
130706.00555419922
130602.00714111328
130806.00402832031
130806.00402832031
130834.00360107422
130806.00402832031
130910.00244140625
130730.00518798828
130730.00518798828
130886.00280761719
130806.00402832031
130626.00677490234
130834.00360107422
130806.00402832031
130782.00439453125
130782.00439453125
130858.00323486328
130706.00555419922
130730.00518798828
130962.00164794922
130758.00476074219
130730.00518798828
130834.00360107422
130806.00402832031
130806.00402832031
130782.00439453125
130858.00323486328
130706.00555419922
130678.00598144531
130938.00201416016
130730.00518798828
130678.00598144531
130782.00439453125
130758.00476074219
130706.00555419922
130730.00518798828
130758.00476074219
130730.00518798828
130706.00555419922
130938.00201416016
130730.00518798828
130678.00598144531
130806.00402832031
130730.00518798828
130782.00439453125
130758.00476074219
130886.00280761719
130706.00555419922
130806.00402832031
130910.00244140625
130758.00476074219
130626.00677490234
130782.00439453125
130706.00555419922
130730.00518798828
130678.00598144531
130782.00439453125
130678.00598144531
130626.00677490234
130730.00518798828
130678.00598144531
130574.00756835938
130654.00634765625
130574.00756835938
130730.00518798828
130758.00476074219
130782.00439453125
130654.00634765625
130678.00598144531
130834.00360107422
130626.00677490234
130654.00634765625
130574.00756835938
130706.00555419922
130758.00476074219
130706.00555419922
130782.00439453125
130654.00634765625
130706.00555419922
130834.00360107422
130678.00598144531
130474.00909423828
130730.00518798828
130626.00677490234
130626.00677490234
130654.00634765625
130706.00555419922
130602.00714111328
130654.00634765625
130758.00476074219
130550.00793457031
130498.00872802734
130626.00677490234
130626.00677490234
130758.00476074219
130678.00598144531
130706.00555419922
130550.00793457031
130550.00793457031
130782.00439453125
130550.00793457031
130446.00952148438
130626.00677490234
130602.00714111328
130654.00634765625
130626.00677490234
130678.00598144531
130550.00793457031
130602.00714111328
130706.00555419922
130550.00793457031
130550.00793457031
130602.00714111328
130626.00677490234
130498.00872802734
130574.00756835938
130602.00714111328
130474.00909423828
130446.00952148438
130678.00598144531
130394.0103149414
130498.00872802734
130550.00793457031
130446.00952148438
130550.00793457031
130626.00677490234
130602.00714111328
130574.00756835938
130498.00872802734
130654.00634765625
130526.00830078125
130394.0103149414
130550.00793457031
130550.00793457031
130602.00714111328
130574.00756835938
130654.00634765625
130526.00830078125
130574.00756835938
130758.00476074219
130498.00872802734
130498.00872802734
130550.00793457031
130474.00909423828
130574.00756835938
130550.00793457031
130550.00793457031
130526.00830078125
130498.00872802734
130498.00872802734
130394.0103149414
130318.01147460938
130498.00872802734
130474.00909423828
130498.00872802734
130474.00909423828
130602.00714111328
130474.00909423828
130526.00830078125
130602.00714111328
130550.00793457031
130498.00872802734
130602.00714111328
130550.00793457031
130626.00677490234
130626.00677490234
130758.00476074219
130602.00714111328
130574.00756835938
130758.00476074219
130654.00634765625
130574.00756835938
130654.00634765625
130730.00518798828
130782.00439453125
130858.00323486328
130858.00323486328
130758.00476074219
130782.00439453125
130990.00122070312
130782.00439453125
130730.00518798828
130910.00244140625
130806.00402832031
130834.00360107422
130886.00280761719
130858.00323486328
130806.00402832031
130782.00439453125
130938.00201416016
130758.00476074219
130730.00518798828
130758.00476074219
130834.00360107422
130962.00164794922
130858.00323486328
131066.00006103516
130886.00280761719
130834.00360107422
131066.00006103516
130834.00360107422
130758.00476074219
130886.00280761719
130938.00201416016
130938.00201416016
130834.00360107422
130886.00280761719
130758.00476074219
130758.00476074219
130858.00323486328
130758.00476074219
130678.00598144531
130758.00476074219
130678.00598144531
130806.00402832031
130834.00360107422
130782.00439453125
130706.00555419922
130758.00476074219
130834.00360107422
130730.00518798828
130626.00677490234
130758.00476074219
130730.00518798828
130782.00439453125
130806.00402832031
130938.00201416016
130834.00360107422
130858.00323486328
131014.00085449219
130758.00476074219
130706.00555419922
130858.00323486328
130886.00280761719
130834.00360107422
130910.00244140625
130910.00244140625
130834.00360107422
130858.00323486328
131066.00006103516
130938.00201416016
130834.00360107422
130938.00201416016
131042.0004272461
131066.00006103516
131042.0004272461
131117.99926757812
131042.0004272461
130990.00122070312
131141.9989013672
130962.00164794922
130858.00323486328
131042.0004272461
131042.0004272461
131089.99969482422
131117.99926757812
131245.99731445312
131117.99926757812
131141.9989013672
131297.9965209961
131089.99969482422
131141.9989013672
131169.9984741211
131117.99926757812
131297.9965209961
131193.99810791016
131221.99768066406
131273.99688720703
131169.9984741211
131273.99688720703
131117.99926757812
131066.00006103516
131169.9984741211
131141.9989013672
131245.99731445312
131193.99810791016
131273.99688720703
131117.99926757812
131221.99768066406
131373.99536132812
131169.9984741211
131117.99926757812
131221.99768066406
131221.99768066406
131349.99572753906
131245.99731445312
131349.99572753906
131245.99731445312
131221.99768066406
131425.9945678711
131245.99731445312
131193.99810791016
131273.99688720703
131273.99688720703
131169.9984741211
131373.99536132812
131425.9945678711
131297.9965209961
131273.99688720703
131401.99493408203
131245.99731445312
131221.99768066406
131245.99731445312
131273.99688720703
131193.99810791016
131325.99609375
131373.99536132812
131273.99688720703
131273.99688720703
131425.9945678711
131273.99688720703
131221.99768066406
131325.99609375
131221.99768066406
131273.99688720703
131273.99688720703
131297.9965209961
131193.99810791016
131273.99688720703
131373.99536132812
131169.9984741211
131245.99731445312
131245.99731445312
131273.99688720703
131245.99731445312
131273.99688720703
131297.9965209961
131273.99688720703
131297.9965209961
131349.99572753906
131221.99768066406
131089.99969482422
131297.9965209961
131325.99609375
131273.99688720703
131325.99609375
131373.99536132812
131325.99609375
131325.99609375
131453.994140625
131297.9965209961
131325.99609375
131373.99536132812
131273.99688720703
131401.99493408203
131373.99536132812
131505.99334716797
131401.99493408203
131453.994140625
131605.99182128906
131401.99493408203
131401.99493408203
131425.9945678711
131477.99377441406
131477.99377441406
131505.99334716797
131505.99334716797
131477.99377441406
131453.994140625
131529.99298095703
131401.99493408203
131325.99609375
131373.99536132812
131453.994140625
131349.99572753906
131529.99298095703
131605.99182128906
131529.99298095703
131529.99298095703
131605.99182128906
131605.99182128906
131477.99377441406
131529.99298095703
131477.99377441406
131373.99536132812
131529.99298095703
131557.99255371094
131529.99298095703
131505.99334716797
131605.99182128906
131477.99377441406
131477.99377441406
131581.9921875
131581.9921875
131401.99493408203
131605.99182128906
131605.99182128906
131477.99377441406
131529.99298095703
131581.9921875
131505.99334716797
131477.99377441406
131529.99298095703
131453.994140625
131325.99609375
131505.99334716797
131685.99060058594
131477.99377441406
131557.99255371094
131581.9921875
131453.994140625
131453.994140625
131505.99334716797
131401.99493408203
131349.99572753906
131477.99377441406
131477.99377441406
131477.99377441406
131505.99334716797
131605.99182128906
131477.99377441406
131349.99572753906
131453.994140625
131453.994140625
131273.99688720703
131529.99298095703
131557.99255371094
131453.994140625
131505.99334716797
131633.99139404297
131453.994140625
131401.99493408203
131453.994140625
131425.9945678711
131273.99688720703
131505.99334716797
131505.99334716797
131373.99536132812
131453.994140625
131605.99182128906
131373.99536132812
131349.99572753906
131373.99536132812
131297.9965209961
131273.99688720703
131453.994140625
131505.99334716797
131453.994140625
131425.9945678711
131529.99298095703
131401.99493408203
131273.99688720703
131401.99493408203
131425.9945678711
131273.99688720703
131349.99572753906
131425.9945678711
131453.994140625
131453.994140625
131505.99334716797
131401.99493408203
131245.99731445312
131401.99493408203
131349.99572753906
131297.9965209961
131529.99298095703
131505.99334716797
131453.994140625
131529.99298095703
131605.99182128906
131453.994140625
131373.99536132812
131453.994140625
131477.99377441406
131349.99572753906
131453.994140625
131401.99493408203
131349.99572753906
131477.99377441406
131425.9945678711
131373.99536132812
131325.99609375
131349.99572753906
131373.99536132812
131245.99731445312
131373.99536132812
131425.9945678711
131349.99572753906
131373.99536132812
131477.99377441406
131297.9965209961
131273.99688720703
131349.99572753906
131373.99536132812
131349.99572753906
131401.99493408203
131425.9945678711
131425.9945678711
131425.9945678711
131633.99139404297
131373.99536132812
131401.99493408203
131453.994140625
131425.9945678711
131349.99572753906
131453.994140625
131557.99255371094
131505.99334716797
131425.9945678711
131557.99255371094
131505.99334716797
131373.99536132812
131505.99334716797
131425.9945678711
131245.99731445312
131605.99182128906
131505.99334716797
131477.99377441406
131505.99334716797
131657.99102783203
131529.99298095703
131453.994140625
131581.9921875
131557.99255371094
131349.99572753906
131581.9921875
131581.9921875
131557.99255371094
131557.99255371094
131709.990234375
131425.9945678711
131529.99298095703
131557.99255371094
131505.99334716797
131349.99572753906
131505.99334716797
131529.99298095703
131529.99298095703
131505.99334716797
131761.98944091797
131505.99334716797
131453.994140625
131581.9921875
131477.99377441406
131477.99377441406
131529.99298095703
131605.99182128906
131581.9921875
131657.99102783203
131709.990234375
131505.99334716797
131453.994140625
131605.99182128906
131581.9921875
131425.9945678711
131529.99298095703
131477.99377441406
131505.99334716797
131529.99298095703
131657.99102783203
131453.994140625
131477.99377441406
131373.99536132812
131425.9945678711
131373.99536132812
131557.99255371094
131505.99334716797
131453.994140625
131401.99493408203
131557.99255371094
131425.9945678711
131401.99493408203
131349.99572753906
131349.99572753906
131221.99768066406
131425.9945678711
131505.99334716797
131401.99493408203
131349.99572753906
131529.99298095703
131401.99493408203
131401.99493408203
131425.9945678711
131349.99572753906
131325.99609375
131557.99255371094
131505.99334716797
131477.99377441406
131505.99334716797
131605.99182128906
131425.9945678711
131477.99377441406
131477.99377441406
131581.9921875
131401.99493408203
131557.99255371094
131529.99298095703
131529.99298095703
131557.99255371094
131685.99060058594
131505.99334716797
131453.994140625
131505.99334716797
131477.99377441406
131349.99572753906
131529.99298095703
131557.99255371094
131477.99377441406
131529.99298095703
131685.99060058594
131425.9945678711
131373.99536132812
131529.99298095703
131373.99536132812
131221.99768066406
131505.99334716797
131425.9945678711
131401.99493408203
131401.99493408203
131605.99182128906
131349.99572753906
131373.99536132812
131297.9965209961
131373.99536132812
131245.99731445312
131453.994140625
131325.99609375
131349.99572753906
131401.99493408203
131477.99377441406
131373.99536132812
131349.99572753906
131349.99572753906
131373.99536132812
131141.9989013672
131477.99377441406
131401.99493408203
131349.99572753906
131273.99688720703
131453.994140625
131297.9965209961
131297.9965209961
131325.99609375
131273.99688720703
131169.9984741211
131425.9945678711
131401.99493408203
131273.99688720703
131349.99572753906
131453.994140625
131325.99609375
131297.9965209961
131273.99688720703
131273.99688720703
131117.99926757812
131349.99572753906
131297.9965209961
131325.99609375
131297.9965209961
131453.994140625
131221.99768066406
131297.9965209961
131245.99731445312
131245.99731445312
131089.99969482422
131273.99688720703
131245.99731445312
131245.99731445312
131221.99768066406
131425.9945678711
131245.99731445312
131169.9984741211
131193.99810791016
131169.9984741211
131042.0004272461
131221.99768066406
131297.9965209961
131141.9989013672
131273.99688720703
131401.99493408203
131193.99810791016
131169.9984741211
131169.9984741211
131169.9984741211
131066.00006103516
131169.9984741211
131245.99731445312
131169.9984741211
131141.9989013672
131297.9965209961
131117.99926757812
131066.00006103516
131066.00006103516
131141.9989013672
130938.00201416016
131141.9989013672
131117.99926757812
131089.99969482422
131042.0004272461
131169.9984741211
131042.0004272461
131014.00085449219
130990.00122070312
130990.00122070312
130910.00244140625
131042.0004272461
131089.99969482422
131066.00006103516
131117.99926757812
131193.99810791016
131042.0004272461
131042.0004272461
131089.99969482422
131066.00006103516
130938.00201416016
131169.9984741211
131089.99969482422
131141.9989013672
131193.99810791016
131273.99688720703
131141.9989013672
131117.99926757812
131117.99926757812
131066.00006103516
131014.00085449219
131141.9989013672
131193.99810791016
131193.99810791016
131117.99926757812
131297.9965209961
131089.99969482422
131141.9989013672
131089.99969482422
131117.99926757812
131066.00006103516
131117.99926757812
131169.9984741211
131141.9989013672
131221.99768066406
131325.99609375
131117.99926757812
131141.9989013672
131117.99926757812
131117.99926757812
130962.00164794922
131273.99688720703
131273.99688720703
131325.99609375
131325.99609375
131401.99493408203
131325.99609375
131297.9965209961
131245.99731445312
131273.99688720703
131089.99969482422
131273.99688720703
131245.99731445312
131221.99768066406
131169.9984741211
131297.9965209961
131141.9989013672
131193.99810791016
131141.9989013672
131221.99768066406
131117.99926757812
131273.99688720703
131325.99609375
131193.99810791016
131297.9965209961
131401.99493408203
131193.99810791016
131221.99768066406
131066.00006103516
131141.9989013672
131014.00085449219
131169.9984741211
131193.99810791016
131193.99810791016
131273.99688720703
131325.99609375
131169.9984741211
131169.9984741211
131221.99768066406
131193.99810791016
131066.00006103516
131221.99768066406
131141.9989013672
131221.99768066406
131221.99768066406
131325.99609375
131141.9989013672
131245.99731445312
131193.99810791016
131141.9989013672
130990.00122070312
131169.9984741211
131193.99810791016
131221.99768066406
131169.9984741211
131349.99572753906
131193.99810791016
131193.99810791016
131193.99810791016
131089.99969482422
131042.0004272461
131117.99926757812
131193.99810791016
131141.9989013672
131221.99768066406
131297.9965209961
131193.99810791016
131193.99810791016
131117.99926757812
131141.9989013672
131042.0004272461
131245.99731445312
131221.99768066406
131297.9965209961
131193.99810791016
131273.99688720703
131193.99810791016
131141.9989013672
131169.9984741211
131245.99731445312
131089.99969482422
131325.99609375
131349.99572753906
131325.99609375
131325.99609375
131425.9945678711
131297.9965209961
131297.9965209961
131297.9965209961
131297.9965209961
131169.9984741211
131373.99536132812
131325.99609375
131325.99609375
131401.99493408203
131477.99377441406
131325.99609375
131297.9965209961
131245.99731445312
131325.99609375
131297.9965209961
131325.99609375
131325.99609375
131325.99609375
131349.99572753906
131453.994140625
131325.99609375
131325.99609375
131349.99572753906
131349.99572753906
131221.99768066406
131325.99609375
131273.99688720703
131373.99536132812
131273.99688720703
131453.994140625
131273.99688720703
131221.99768066406
131273.99688720703
131297.9965209961
131221.99768066406
131245.99731445312
131297.9965209961
131273.99688720703
131297.9965209961
131245.99731445312
131221.99768066406
131193.99810791016
131169.9984741211
131221.99768066406
131066.00006103516
131089.99969482422
131245.99731445312
131193.99810791016
131221.99768066406
131297.9965209961
131245.99731445312
131169.9984741211
131193.99810791016
131245.99731445312
131117.99926757812
131221.99768066406
131169.9984741211
131169.9984741211
131221.99768066406
131325.99609375
131089.99969482422
131089.99969482422
131042.0004272461
131066.00006103516
130962.00164794922
131117.99926757812
131066.00006103516
131169.9984741211
131169.9984741211
131169.9984741211
131042.0004272461
131014.00085449219
131117.99926757812
130990.00122070312
131014.00085449219
131089.99969482422
131117.99926757812
131141.9989013672
131193.99810791016
131273.99688720703
131117.99926757812
131141.9989013672
131169.9984741211
131066.00006103516
130990.00122070312
131141.9989013672
131066.00006103516
131193.99810791016
131066.00006103516
131169.9984741211
131014.00085449219
131066.00006103516
131014.00085449219
131089.99969482422
130938.00201416016
131066.00006103516
131089.99969482422
131066.00006103516
131089.99969482422
131245.99731445312
131169.9984741211
131117.99926757812
131325.99609375
131141.9989013672
131066.00006103516
131141.9989013672
131141.9989013672
131169.9984741211
131117.99926757812
131141.9989013672
131141.9989013672
131089.99969482422
131117.99926757812
131117.99926757812
131117.99926757812
131169.9984741211
131169.9984741211
131193.99810791016
131193.99810791016
131273.99688720703
131169.9984741211
131141.9989013672
131117.99926757812
131245.99731445312
131141.9989013672
131245.99731445312
131245.99731445312
131297.9965209961
131245.99731445312
131373.99536132812
131245.99731445312
131273.99688720703
131349.99572753906
131221.99768066406
131169.9984741211
131245.99731445312
131245.99731445312
131221.99768066406
131221.99768066406
131349.99572753906
131401.99493408203
131193.99810791016
131297.9965209961
131245.99731445312
131141.9989013672
131297.9965209961
131273.99688720703
131425.9945678711
131425.9945678711
131453.994140625
131273.99688720703
131325.99609375
131477.99377441406
131325.99609375
131273.99688720703
131349.99572753906
131297.9965209961
131325.99609375
131325.99609375
131349.99572753906
131245.99731445312
131245.99731445312
131349.99572753906
131245.99731445312
131221.99768066406
131297.9965209961
131349.99572753906
131401.99493408203
131325.99609375
131373.99536132812
131325.99609375
131401.99493408203
131605.99182128906
131349.99572753906
131401.99493408203
131425.9945678711
131349.99572753906
131453.994140625
131477.99377441406
131401.99493408203
131425.9945678711
131453.994140625
131557.99255371094
131453.994140625
131373.99536132812
131401.99493408203
131373.99536132812
131425.9945678711
131401.99493408203
131477.99377441406
131373.99536132812
131453.994140625
131557.99255371094
131325.99609375
131297.9965209961
131425.9945678711
131297.9965209961
131349.99572753906
131425.9945678711
131401.99493408203
131325.99609375
131245.99731445312
131453.994140625
131193.99810791016
131245.99731445312
131325.99609375
131349.99572753906
131349.99572753906
131349.99572753906
131373.99536132812
131297.9965209961
131273.99688720703
131373.99536132812
131169.9984741211
131193.99810791016
131325.99609375
131297.9965209961
131349.99572753906
131349.99572753906
131453.994140625
131245.99731445312
131373.99536132812
131325.99609375
131297.9965209961
131273.99688720703
131297.9965209961
131273.99688720703
131325.99609375
131373.99536132812
131401.99493408203
131297.9965209961
131325.99609375
131477.99377441406
131221.99768066406
131221.99768066406
131373.99536132812
131273.99688720703
131297.9965209961
131349.99572753906
131401.99493408203
131273.99688720703
131325.99609375
131401.99493408203
131297.9965209961
131169.9984741211
131245.99731445312
131297.9965209961
131349.99572753906
131273.99688720703
131349.99572753906
131297.9965209961
131221.99768066406
131453.994140625
131245.99731445312
131273.99688720703
131297.9965209961
131273.99688720703
131325.99609375
131297.9965209961
131325.99609375
131245.99731445312
131273.99688720703
131349.99572753906
131169.9984741211
131169.9984741211
131221.99768066406
131193.99810791016
131273.99688720703
131169.9984741211
131193.99810791016
131141.9989013672
131169.9984741211
131325.99609375
131089.99969482422
131117.99926757812
131141.9989013672
131117.99926757812
130990.00122070312
131193.99810791016
131193.99810791016
131141.9989013672
131089.99969482422
131273.99688720703
131141.9989013672
131042.0004272461
131066.00006103516
131066.00006103516
130990.00122070312
131169.9984741211
131089.99969482422
131169.9984741211
131089.99969482422
131245.99731445312
131117.99926757812
131042.0004272461
131169.9984741211
131117.99926757812
130990.00122070312
131117.99926757812
131169.9984741211
131141.9989013672
131169.9984741211
131297.9965209961
131066.00006103516
131089.99969482422
131089.99969482422
131066.00006103516
130910.00244140625
131066.00006103516
131193.99810791016
131066.00006103516
131014.00085449219
131193.99810791016
131042.0004272461
130990.00122070312
131089.99969482422
131014.00085449219
130910.00244140625
131117.99926757812
131117.99926757812
131042.0004272461
131089.99969482422
131221.99768066406
131014.00085449219
130938.00201416016
131117.99926757812
131066.00006103516
130886.00280761719
131066.00006103516
131089.99969482422
131066.00006103516
131042.0004272461
131193.99810791016
131089.99969482422
131042.0004272461
131066.00006103516
131066.00006103516
130990.00122070312
131089.99969482422
131066.00006103516
131066.00006103516
131014.00085449219
131117.99926757812
130962.00164794922
130938.00201416016
130938.00201416016
130886.00280761719
130758.00476074219
131014.00085449219
130962.00164794922
130962.00164794922
131089.99969482422
131089.99969482422
130990.00122070312
130962.00164794922
130990.00122070312
130962.00164794922
130834.00360107422
130990.00122070312
131066.00006103516
131042.0004272461
131042.0004272461
131221.99768066406
130962.00164794922
130990.00122070312
131042.0004272461
131066.00006103516
130886.00280761719
131042.0004272461
130990.00122070312
131042.0004272461
131066.00006103516
131141.9989013672
130938.00201416016
130858.00323486328
130962.00164794922
130910.00244140625
130758.00476074219
130990.00122070312
131089.99969482422
130938.00201416016
130990.00122070312
131169.9984741211
130990.00122070312
130938.00201416016
130962.00164794922
130910.00244140625
130858.00323486328
131042.0004272461
131066.00006103516
130962.00164794922
130962.00164794922
131169.9984741211
130938.00201416016
130910.00244140625
131042.0004272461
130962.00164794922
130806.00402832031
131014.00085449219
131066.00006103516
130962.00164794922
130990.00122070312
131089.99969482422
130990.00122070312
130962.00164794922
130962.00164794922
130962.00164794922
130834.00360107422
131066.00006103516
131089.99969482422
131014.00085449219
131066.00006103516
131221.99768066406
130990.00122070312
131042.0004272461
130938.00201416016
131014.00085449219
130834.00360107422
131042.0004272461
130990.00122070312
130962.00164794922
131014.00085449219
131066.00006103516
130990.00122070312
130858.00323486328
131042.0004272461
130962.00164794922
130758.00476074219
131089.99969482422
131066.00006103516
131042.0004272461
131117.99926757812
131245.99731445312
131042.0004272461
131014.00085449219
131169.9984741211
131066.00006103516
130910.00244140625
131117.99926757812
131066.00006103516
131141.9989013672
131193.99810791016
131325.99609375
131141.9989013672
131169.9984741211
131193.99810791016
131117.99926757812
131042.0004272461
131221.99768066406
131245.99731445312
131141.9989013672
131193.99810791016
131273.99688720703
131141.9989013672
131066.00006103516
131141.9989013672
131066.00006103516
130886.00280761719
131066.00006103516
131117.99926757812
131042.0004272461
131089.99969482422
131169.9984741211
131042.0004272461
130990.00122070312
131014.00085449219
131014.00085449219
130886.00280761719
131089.99969482422
131141.9989013672
131089.99969482422
131117.99926757812
131245.99731445312
131014.00085449219
131089.99969482422
131014.00085449219
130938.00201416016
130886.00280761719
131042.0004272461
131117.99926757812
131066.00006103516
131117.99926757812
131245.99731445312
131014.00085449219
130990.00122070312
131014.00085449219
131014.00085449219
130886.00280761719
131089.99969482422
131014.00085449219
131169.9984741211
131141.9989013672
131297.9965209961
131042.0004272461
131117.99926757812
131117.99926757812
131141.9989013672
130962.00164794922
131141.9989013672
131169.9984741211
131089.99969482422
131089.99969482422
131169.9984741211
131117.99926757812
131066.00006103516
131066.00006103516
131042.0004272461
130886.00280761719
131089.99969482422
131117.99926757812
131066.00006103516
131066.00006103516
131193.99810791016
131014.00085449219
131042.0004272461
131014.00085449219
130990.00122070312
130938.00201416016
131089.99969482422
131014.00085449219
131117.99926757812
131089.99969482422
131245.99731445312
130990.00122070312
131042.0004272461
130990.00122070312
131042.0004272461
130910.00244140625
131089.99969482422
131066.00006103516
131089.99969482422
131117.99926757812
131193.99810791016
131169.9984741211
131066.00006103516
130990.00122070312
131014.00085449219
130910.00244140625
131066.00006103516
131042.0004272461
131066.00006103516
131117.99926757812
131297.9965209961
131117.99926757812
131169.9984741211
131169.9984741211
131169.9984741211
131089.99969482422
131141.9989013672
131221.99768066406
131169.9984741211
131193.99810791016
131297.9965209961
131141.9989013672
131193.99810791016
131141.9989013672
131066.00006103516
131042.0004272461
131193.99810791016
131193.99810791016
131245.99731445312
131141.9989013672
131297.9965209961
131169.9984741211
131169.9984741211
131221.99768066406
131141.9989013672
131089.99969482422
131221.99768066406
131245.99731445312
131193.99810791016
131245.99731445312
131349.99572753906
131193.99810791016
131169.9984741211
131221.99768066406
131245.99731445312
131117.99926757812
131325.99609375
131325.99609375
131297.9965209961
131245.99731445312
131401.99493408203
131273.99688720703
131273.99688720703
131221.99768066406
131193.99810791016
131117.99926757812
131273.99688720703
131297.9965209961
131297.9965209961
131373.99536132812
131349.99572753906
131273.99688720703
131245.99731445312
131221.99768066406
131273.99688720703
131221.99768066406
131297.9965209961
131193.99810791016
131401.99493408203
131349.99572753906
131373.99536132812
131193.99810791016
131325.99609375
131193.99810791016
131245.99731445312
131193.99810791016
131297.9965209961
131325.99609375
131349.99572753906
131453.994140625
131425.9945678711
131245.99731445312
131325.99609375
131273.99688720703
131297.9965209961
131221.99768066406
131349.99572753906
131325.99609375
131297.9965209961
131373.99536132812
131425.9945678711
131297.9965209961
131221.99768066406
131245.99731445312
131221.99768066406
131141.9989013672
131297.9965209961
131245.99731445312
131297.9965209961
131325.99609375
131373.99536132812
131325.99609375
131273.99688720703
131245.99731445312
131193.99810791016
131089.99969482422
131221.99768066406
131193.99810791016
131221.99768066406
131245.99731445312
131245.99731445312
131141.9989013672
131169.9984741211
131349.99572753906
131193.99810791016
131014.00085449219
131089.99969482422
131141.9989013672
131221.99768066406
131273.99688720703
131273.99688720703
131193.99810791016
131221.99768066406
131425.9945678711
131221.99768066406
131193.99810791016
131273.99688720703
131193.99810791016
131297.9965209961
131245.99731445312
131349.99572753906
131273.99688720703
131193.99810791016
131297.9965209961
131141.9989013672
131117.99926757812
131245.99731445312
131221.99768066406
131245.99731445312
131221.99768066406
131221.99768066406
131169.9984741211
131169.9984741211
131273.99688720703
131193.99810791016
130990.00122070312
131221.99768066406
131117.99926757812
131297.9965209961
131193.99810791016
131245.99731445312
131014.00085449219
131117.99926757812
131193.99810791016
131014.00085449219
130886.00280761719
131066.00006103516
131141.9989013672
131193.99810791016
131141.9989013672
131193.99810791016
131089.99969482422
131014.00085449219
131169.9984741211
131014.00085449219
130990.00122070312
131169.9984741211
131066.00006103516
131169.9984741211
131193.99810791016
131169.9984741211
131066.00006103516
131117.99926757812
131221.99768066406
131089.99969482422
130962.00164794922
131066.00006103516
131066.00006103516
131141.9989013672
131169.9984741211
131141.9989013672
131117.99926757812
131141.9989013672
131221.99768066406
131089.99969482422
130990.00122070312
131141.9989013672
131141.9989013672
131221.99768066406
131169.9984741211
131273.99688720703
131117.99926757812
131169.9984741211
131373.99536132812
131193.99810791016
131141.9989013672
131221.99768066406
131193.99810791016
131193.99810791016
131141.9989013672
131273.99688720703
131117.99926757812
131193.99810791016
131273.99688720703
131221.99768066406
131169.9984741211
131193.99810791016
131221.99768066406
131169.9984741211
131169.9984741211
131193.99810791016
131042.0004272461
131117.99926757812
131325.99609375
131066.00006103516
131141.9989013672
131169.9984741211
131221.99768066406
131221.99768066406
131141.9989013672
131193.99810791016
131141.9989013672
131141.9989013672
131273.99688720703
131141.9989013672
130962.00164794922
131141.9989013672
131141.9989013672
131117.99926757812
131245.99731445312
131193.99810791016
131169.9984741211
131193.99810791016
131273.99688720703
131169.9984741211
131117.99926757812
131117.99926757812
131089.99969482422
131066.00006103516
131117.99926757812
131193.99810791016
131089.99969482422
131066.00006103516
131273.99688720703
131042.0004272461
131014.00085449219
131117.99926757812
131089.99969482422
131014.00085449219
131117.99926757812
131169.9984741211
131089.99969482422
131117.99926757812
131297.9965209961
131089.99969482422
131014.00085449219
131141.9989013672
131089.99969482422
131169.9984741211
131141.9989013672
131141.9989013672
131117.99926757812
131193.99810791016
131325.99609375
131117.99926757812
131193.99810791016
131193.99810791016
131117.99926757812
131325.99609375
131193.99810791016
131221.99768066406
131245.99731445312
131273.99688720703
131349.99572753906
131193.99810791016
131089.99969482422
131273.99688720703
131221.99768066406
131349.99572753906
131297.9965209961
131325.99609375
131325.99609375
131297.9965209961
131401.99493408203
131245.99731445312
131221.99768066406
131297.9965209961
131221.99768066406
131273.99688720703
131349.99572753906
131273.99688720703
131245.99731445312
131273.99688720703
131453.994140625
131245.99731445312
131245.99731445312
131273.99688720703
131193.99810791016
131193.99810791016
131297.9965209961
131373.99536132812
131273.99688720703
131245.99731445312
131373.99536132812
131245.99731445312
131193.99810791016
131273.99688720703
131297.9965209961
131066.00006103516
131325.99609375
131325.99609375
131221.99768066406
131273.99688720703
131373.99536132812
131169.9984741211
131169.9984741211
131297.9965209961
131245.99731445312
131193.99810791016
131401.99493408203
131401.99493408203
131245.99731445312
131325.99609375
131401.99493408203
131273.99688720703
131141.9989013672
131325.99609375
131349.99572753906
131193.99810791016
131349.99572753906
131349.99572753906
131373.99536132812
131297.9965209961
131373.99536132812
131221.99768066406
131141.9989013672
131169.9984741211
131169.9984741211
131141.9989013672
131273.99688720703
131325.99609375
131273.99688720703
131273.99688720703
131477.99377441406
131221.99768066406
131141.9989013672
131193.99810791016
131245.99731445312
131141.9989013672
131245.99731445312
131297.9965209961
131221.99768066406
131245.99731445312
131373.99536132812
131273.99688720703
131193.99810791016
131273.99688720703
131221.99768066406
131193.99810791016
131401.99493408203
131349.99572753906
131325.99609375
131373.99536132812
131557.99255371094
131373.99536132812
131297.9965209961
131425.9945678711
131401.99493408203
131325.99609375
131505.99334716797
131529.99298095703
131453.994140625
131477.99377441406
131657.99102783203
131477.99377441406
131401.99493408203
131453.994140625
131373.99536132812
131349.99572753906
131505.99334716797
131529.99298095703
131373.99536132812
131453.994140625
131529.99298095703
131401.99493408203
131373.99536132812
131349.99572753906
131401.99493408203
131297.9965209961
131401.99493408203
131453.994140625
131401.99493408203
131373.99536132812
131477.99377441406
131273.99688720703
131273.99688720703
131297.9965209961
131273.99688720703
131221.99768066406
131297.9965209961
131325.99609375
131325.99609375
131349.99572753906
131401.99493408203
131373.99536132812
131273.99688720703
131245.99731445312
131193.99810791016
131141.9989013672
131325.99609375
131349.99572753906
131245.99731445312
131273.99688720703
131425.9945678711
131245.99731445312
131221.99768066406
131245.99731445312
131325.99609375
131141.9989013672
131373.99536132812
131325.99609375
131325.99609375
131273.99688720703
131477.99377441406
131221.99768066406
131273.99688720703
131245.99731445312
131193.99810791016
131066.00006103516
131325.99609375
131273.99688720703
131245.99731445312
131325.99609375
131425.9945678711
131245.99731445312
131221.99768066406
131221.99768066406
131297.9965209961
131014.00085449219
131297.9965209961
131245.99731445312
131221.99768066406
131169.9984741211
131273.99688720703
131089.99969482422
131169.9984741211
131169.9984741211
131169.9984741211
131089.99969482422
131297.9965209961
131325.99609375
131297.9965209961
131193.99810791016
131297.9965209961
131141.9989013672
131089.99969482422
131117.99926757812
131089.99969482422
131042.0004272461
131193.99810791016
131169.9984741211
131141.9989013672
131245.99731445312
131221.99768066406
131089.99969482422
131141.9989013672
131089.99969482422
131089.99969482422
130962.00164794922
131089.99969482422
131169.9984741211
131141.9989013672
131221.99768066406
131245.99731445312
131193.99810791016
131089.99969482422
131141.9989013672
131066.00006103516
130962.00164794922
131089.99969482422
131141.9989013672
131117.99926757812
131141.9989013672
131221.99768066406
131141.9989013672
131089.99969482422
131066.00006103516
131089.99969482422
130990.00122070312
131169.9984741211
131193.99810791016
131193.99810791016
131089.99969482422
131193.99810791016
131066.00006103516
131042.0004272461
131089.99969482422
131066.00006103516
130938.00201416016
131169.9984741211
131117.99926757812
131117.99926757812
131169.9984741211
131245.99731445312
131042.0004272461
131042.0004272461
131042.0004272461
130990.00122070312
130910.00244140625
131066.00006103516
130990.00122070312
131117.99926757812
131014.00085449219
131089.99969482422
131014.00085449219
131014.00085449219
130962.00164794922
130962.00164794922
130910.00244140625
131066.00006103516
131042.0004272461
131014.00085449219
131042.0004272461
131117.99926757812
130990.00122070312
130990.00122070312
130962.00164794922
130938.00201416016
130910.00244140625
131117.99926757812
131042.0004272461
131014.00085449219
131089.99969482422
131117.99926757812
131089.99969482422
131066.00006103516
131169.9984741211
131042.0004272461
130910.00244140625
131193.99810791016
131066.00006103516
131042.0004272461
131042.0004272461
131169.9984741211
130938.00201416016
130962.00164794922
131273.99688720703
131014.00085449219
130962.00164794922
131014.00085449219
131066.00006103516
131066.00006103516
131042.0004272461
131221.99768066406
131066.00006103516
131066.00006103516
131193.99810791016
131066.00006103516
130886.00280761719
131089.99969482422
131089.99969482422
131089.99969482422
131042.0004272461
131169.9984741211
130990.00122070312
131014.00085449219
130990.00122070312
131117.99926757812
130806.00402832031
131014.00085449219
130962.00164794922
131141.9989013672
131089.99969482422
131042.0004272461
131014.00085449219
131014.00085449219
130910.00244140625
130938.00201416016
130834.00360107422
131042.0004272461
131042.0004272461
131066.00006103516
130990.00122070312
131089.99969482422
130938.00201416016
130962.00164794922
130938.00201416016
130990.00122070312
130910.00244140625
130990.00122070312
131042.0004272461
131117.99926757812
131042.0004272461
131193.99810791016
131042.0004272461
131066.00006103516
131014.00085449219
131014.00085449219
130938.00201416016
131042.0004272461
131042.0004272461
131117.99926757812
131089.99969482422
131169.9984741211
131117.99926757812
131014.00085449219
131066.00006103516
130962.00164794922
130962.00164794922
131117.99926757812
131066.00006103516
131066.00006103516
131141.9989013672
131193.99810791016
131014.00085449219
131117.99926757812
131014.00085449219
131042.0004272461
130962.00164794922
131117.99926757812
131117.99926757812
131193.99810791016
131117.99926757812
131193.99810791016
131089.99969482422
131042.0004272461
131042.0004272461
131066.00006103516
130962.00164794922
131066.00006103516
131066.00006103516
131169.9984741211
131141.9989013672
131193.99810791016
131089.99969482422
131141.9989013672
131089.99969482422
131066.00006103516
131014.00085449219
131193.99810791016
131169.9984741211
131169.9984741211
131221.99768066406
131273.99688720703
131169.9984741211
131169.9984741211
131401.99493408203
131169.9984741211
131066.00006103516
131193.99810791016
131066.00006103516
131193.99810791016
131169.9984741211
131325.99609375
131193.99810791016
131141.9989013672
131349.99572753906
131169.9984741211
131089.99969482422
131193.99810791016
131221.99768066406
131245.99731445312
131221.99768066406
131297.9965209961
131221.99768066406
131141.9989013672
131169.9984741211
131089.99969482422
131089.99969482422
131169.9984741211
131089.99969482422
131193.99810791016
131245.99731445312
131325.99609375
131221.99768066406
131169.9984741211
131297.9965209961
131169.9984741211
131042.0004272461
131193.99810791016
131117.99926757812
131193.99810791016
131169.9984741211
131193.99810791016
131169.9984741211
131245.99731445312
131401.99493408203
131169.9984741211
131066.00006103516
131273.99688720703
131221.99768066406
131297.9965209961
131221.99768066406
131221.99768066406
131221.99768066406
131193.99810791016
131325.99609375
131141.9989013672
131117.99926757812
131297.9965209961
131117.99926757812
131273.99688720703
131193.99810791016
131273.99688720703
131117.99926757812
131117.99926757812
131273.99688720703
131066.00006103516
131014.00085449219
131141.9989013672
131089.99969482422
131245.99731445312
131169.9984741211
131273.99688720703
131169.9984741211
131245.99731445312
131349.99572753906
131141.9989013672
131141.9989013672
131193.99810791016
131117.99926757812
131297.9965209961
131245.99731445312
131193.99810791016
131169.9984741211
131221.99768066406
131221.99768066406
131141.9989013672
131066.00006103516
131141.9989013672
131089.99969482422
131169.9984741211
131117.99926757812
131117.99926757812
131066.00006103516
131117.99926757812
131221.99768066406
131169.9984741211
131066.00006103516
131141.9989013672
131141.9989013672
131193.99810791016
131221.99768066406
131221.99768066406
131245.99731445312
131117.99926757812
131349.99572753906
131141.9989013672
131193.99810791016
131117.99926757812
131193.99810791016
131297.9965209961
131193.99810791016
131273.99688720703
131141.9989013672
131193.99810791016
131325.99609375
131141.9989013672
131117.99926757812
131141.9989013672
131117.99926757812
131273.99688720703
131297.9965209961
131273.99688720703
131141.9989013672
131141.9989013672
131401.99493408203
131117.99926757812
131089.99969482422
131193.99810791016
131221.99768066406
131245.99731445312
131169.9984741211
131193.99810791016
131117.99926757812
131117.99926757812
131245.99731445312
131089.99969482422
131042.0004272461
131117.99926757812
131089.99969482422
131014.00085449219
131141.9989013672
131117.99926757812
131089.99969482422
131066.00006103516
131141.9989013672
131042.0004272461
131089.99969482422
131117.99926757812
131141.9989013672
131193.99810791016
131141.9989013672
131141.9989013672
131066.00006103516
131042.0004272461
131245.99731445312
131066.00006103516
131066.00006103516
131066.00006103516
131089.99969482422
131117.99926757812
131042.0004272461
131193.99810791016
131089.99969482422
131066.00006103516
131221.99768066406
130990.00122070312
130962.00164794922
131014.00085449219
130990.00122070312
131066.00006103516
130962.00164794922
131066.00006103516
130938.00201416016
130962.00164794922
131042.0004272461
130886.00280761719
130858.00323486328
130858.00323486328
130858.00323486328
130678.00598144531
130834.00360107422
130806.00402832031
130758.00476074219
130706.00555419922
130782.00439453125
130654.00634765625
130574.00756835938
130602.00714111328
130626.00677490234
130498.00872802734
130706.00555419922
130758.00476074219
130654.00634765625
130654.00634765625
130730.00518798828
130626.00677490234
130602.00714111328
130730.00518798828
130602.00714111328
130474.00909423828
130758.00476074219
130782.00439453125
130654.00634765625
130706.00555419922
130886.00280761719
130706.00555419922
130706.00555419922
130706.00555419922
130730.00518798828
130574.00756835938
130730.00518798828
130782.00439453125
130706.00555419922
130654.00634765625
130806.00402832031
130626.00677490234
130574.00756835938
130758.00476074219
130730.00518798828
130678.00598144531
130730.00518798828
130834.00360107422
130758.00476074219
130678.00598144531
130910.00244140625
130758.00476074219
130706.00555419922
130806.00402832031
130678.00598144531
130678.00598144531
130834.00360107422
130782.00439453125
130730.00518798828
130782.00439453125
130886.00280761719
130730.00518798828
130706.00555419922
130758.00476074219
130706.00555419922
130526.00830078125
130806.00402832031
130806.00402832031
130706.00555419922
130626.00677490234
130858.00323486328
130706.00555419922
130730.00518798828
130806.00402832031
130758.00476074219
130574.00756835938
130834.00360107422
130806.00402832031
130758.00476074219
130858.00323486328
130990.00122070312
130782.00439453125
130806.00402832031
130834.00360107422
130858.00323486328
130706.00555419922
130886.00280761719
130858.00323486328
130886.00280761719
130910.00244140625
131066.00006103516
130858.00323486328
130834.00360107422
130962.00164794922
130938.00201416016
130758.00476074219
130990.00122070312
130910.00244140625
130834.00360107422
130834.00360107422
131014.00085449219
130834.00360107422
130730.00518798828
130858.00323486328
130806.00402832031
130654.00634765625
130782.00439453125
130834.00360107422
130806.00402832031
130806.00402832031
130990.00122070312
130834.00360107422
130834.00360107422
130886.00280761719
130834.00360107422
130758.00476074219
130962.00164794922
130938.00201416016
130834.00360107422
130910.00244140625
131014.00085449219
130834.00360107422
130782.00439453125
130858.00323486328
130858.00323486328
130730.00518798828
130938.00201416016
130858.00323486328
130858.00323486328
130910.00244140625
131042.0004272461
130886.00280761719
130858.00323486328
130858.00323486328
130938.00201416016
130706.00555419922
130910.00244140625
130910.00244140625
130858.00323486328
130858.00323486328
130990.00122070312
130782.00439453125
130782.00439453125
130834.00360107422
130706.00555419922
130602.00714111328
130782.00439453125
130886.00280761719
130858.00323486328
130910.00244140625
130990.00122070312
130782.00439453125
130706.00555419922
130834.00360107422
130834.00360107422
130550.00793457031
130834.00360107422
130858.00323486328
130886.00280761719
130806.00402832031
130990.00122070312
130834.00360107422
130806.00402832031
130806.00402832031
130806.00402832031
130626.00677490234
130910.00244140625
130910.00244140625
130858.00323486328
130910.00244140625
131014.00085449219
130858.00323486328
130886.00280761719
130834.00360107422
130886.00280761719
130706.00555419922
130858.00323486328
130834.00360107422
130858.00323486328
130886.00280761719
131141.9989013672
130910.00244140625
130834.00360107422
130938.00201416016
130910.00244140625
130782.00439453125
130990.00122070312
130990.00122070312
130938.00201416016
130910.00244140625
131089.99969482422
130886.00280761719
130806.00402832031
130858.00323486328
130806.00402832031
130758.00476074219
130910.00244140625
130938.00201416016
130990.00122070312
130910.00244140625
131117.99926757812
130886.00280761719
130858.00323486328
130962.00164794922
130962.00164794922
130730.00518798828
130938.00201416016
131066.00006103516
130990.00122070312
130910.00244140625
131066.00006103516
130858.00323486328
130910.00244140625
130938.00201416016
130910.00244140625
130782.00439453125
131014.00085449219
130962.00164794922
130990.00122070312
130938.00201416016
131089.99969482422
130938.00201416016
130962.00164794922
130962.00164794922
130910.00244140625
130858.00323486328
131014.00085449219
131042.0004272461
130990.00122070312
131014.00085449219
131221.99768066406
131042.0004272461
131042.0004272461
131014.00085449219
131141.9989013672
130938.00201416016
131169.9984741211
131169.9984741211
131141.9989013672
131117.99926757812
131245.99731445312
131117.99926757812
131117.99926757812
131042.0004272461
131089.99969482422
130990.00122070312
131141.9989013672
131169.9984741211
131117.99926757812
131141.9989013672
131297.9965209961
131117.99926757812
131117.99926757812
131169.9984741211
131141.9989013672
131042.0004272461
131193.99810791016
131169.9984741211
131141.9989013672
131141.9989013672
131221.99768066406
131089.99969482422
131066.00006103516
131089.99969482422
131066.00006103516
130938.00201416016
131066.00006103516
131066.00006103516
131066.00006103516
131141.9989013672
131193.99810791016
131066.00006103516
131042.0004272461
131089.99969482422
131066.00006103516
130938.00201416016
131117.99926757812
131169.9984741211
131066.00006103516
131042.0004272461
131169.9984741211
131014.00085449219
131117.99926757812
131117.99926757812
131066.00006103516
130962.00164794922
131066.00006103516
131117.99926757812
131089.99969482422
131141.9989013672
131297.9965209961
131141.9989013672
131117.99926757812
131042.0004272461
131042.0004272461
130938.00201416016
131089.99969482422
131089.99969482422
131066.00006103516
131066.00006103516
131169.9984741211
130990.00122070312
131066.00006103516
130910.00244140625
131089.99969482422
130938.00201416016
131066.00006103516
131014.00085449219
131169.9984741211
131089.99969482422
131169.9984741211
131042.0004272461
131014.00085449219
130990.00122070312
130990.00122070312
130962.00164794922
131066.00006103516
131066.00006103516
131066.00006103516
131117.99926757812
131169.9984741211
131066.00006103516
130990.00122070312
131014.00085449219
131014.00085449219
130962.00164794922
131117.99926757812
131089.99969482422
131141.9989013672
131117.99926757812
131221.99768066406
131066.00006103516
131066.00006103516
131089.99969482422
131089.99969482422
130990.00122070312
131117.99926757812
131117.99926757812
131169.9984741211
131169.9984741211
131221.99768066406
131089.99969482422
131169.9984741211
130990.00122070312
131066.00006103516
130990.00122070312
131169.9984741211
131117.99926757812
131117.99926757812
131193.99810791016
131193.99810791016
131066.00006103516
131014.00085449219
131066.00006103516
131066.00006103516
130910.00244140625
131193.99810791016
131014.00085449219
131066.00006103516
131042.0004272461
131193.99810791016
131117.99926757812
131042.0004272461
131042.0004272461
131042.0004272461
130962.00164794922
131014.00085449219
131014.00085449219
131066.00006103516
131066.00006103516
131141.9989013672
131089.99969482422
131042.0004272461
130910.00244140625
130990.00122070312
130938.00201416016
131042.0004272461
130962.00164794922
131117.99926757812
131066.00006103516
131117.99926757812
131014.00085449219
130990.00122070312
131297.9965209961
131042.0004272461
130938.00201416016
131117.99926757812
131014.00085449219
131066.00006103516
131066.00006103516
131141.9989013672
131066.00006103516
131042.0004272461
131089.99969482422
131089.99969482422
130938.00201416016
131066.00006103516
131066.00006103516
131089.99969482422
131141.9989013672
131193.99810791016
131042.0004272461
131117.99926757812
131221.99768066406
131014.00085449219
130938.00201416016
131169.9984741211
131014.00085449219
131141.9989013672
131089.99969482422
131169.9984741211
131042.0004272461
131042.0004272461
131193.99810791016
131066.00006103516
130910.00244140625
131117.99926757812
131066.00006103516
131169.9984741211
131141.9989013672
131221.99768066406
131089.99969482422
131169.9984741211
131117.99926757812
131141.9989013672
131014.00085449219
131169.9984741211
131117.99926757812
131141.9989013672
131117.99926757812
131193.99810791016
131042.0004272461
131117.99926757812
131221.99768066406
131141.9989013672
131042.0004272461
131117.99926757812
131117.99926757812
131089.99969482422
131014.00085449219
131169.9984741211
131066.00006103516
131141.9989013672
131169.9984741211
131042.0004272461
130910.00244140625
131141.9989013672
131014.00085449219
131141.9989013672
131169.9984741211
131169.9984741211
131117.99926757812
131169.9984741211
131245.99731445312
131117.99926757812
131066.00006103516
131117.99926757812
131089.99969482422
131193.99810791016
131169.9984741211
131193.99810791016
131042.0004272461
131089.99969482422
131193.99810791016
131117.99926757812
130962.00164794922
131089.99969482422
131066.00006103516
131141.9989013672
131141.9989013672
131193.99810791016
131042.0004272461
131042.0004272461
131221.99768066406
130990.00122070312
131066.00006103516
131066.00006103516
131066.00006103516
131141.9989013672
131169.9984741211
131193.99810791016
131066.00006103516
131014.00085449219
131221.99768066406
131066.00006103516
131042.0004272461
131193.99810791016
131089.99969482422
131169.9984741211
131042.0004272461
131089.99969482422
131089.99969482422
131141.9989013672
131193.99810791016
131066.00006103516
130990.00122070312
131193.99810791016
131117.99926757812
131245.99731445312
131245.99731445312
131193.99810791016
131169.9984741211
131245.99731445312
131193.99810791016
131193.99810791016
131117.99926757812
131221.99768066406
131245.99731445312
131297.9965209961
131221.99768066406
131297.9965209961
131141.9989013672
131193.99810791016
131221.99768066406
131042.0004272461
131066.00006103516
131169.9984741211
131245.99731445312
131066.00006103516
131141.9989013672
131221.99768066406
131141.9989013672
131117.99926757812
131245.99731445312
131141.9989013672
131042.0004272461
131169.9984741211
131169.9984741211
131169.9984741211
131193.99810791016
131221.99768066406
131066.00006103516
131117.99926757812
131273.99688720703
131042.0004272461
130938.00201416016
131089.99969482422
131066.00006103516
131042.0004272461
131066.00006103516
131042.0004272461
131042.0004272461
131066.00006103516
131141.9989013672
130990.00122070312
130910.00244140625
131042.0004272461
131014.00085449219
131066.00006103516
131141.9989013672
131117.99926757812
131089.99969482422
131089.99969482422
131193.99810791016
130962.00164794922
130990.00122070312
131014.00085449219
131014.00085449219
131042.0004272461
131089.99969482422
131169.9984741211
131042.0004272461
131089.99969482422
131193.99810791016
131042.0004272461
130938.00201416016
131089.99969482422
131141.9989013672
130962.00164794922
131089.99969482422
131221.99768066406
131066.00006103516
131193.99810791016
131141.9989013672
131042.0004272461
130990.00122070312
131141.9989013672
131089.99969482422
131042.0004272461
131221.99768066406
131245.99731445312
131141.9989013672
131193.99810791016
131349.99572753906
131141.9989013672
131066.00006103516
131141.9989013672
131169.9984741211
131221.99768066406
131169.9984741211
131221.99768066406
131169.9984741211
131117.99926757812
131169.9984741211
131042.0004272461
130938.00201416016
131042.0004272461
131042.0004272461
131014.00085449219
131117.99926757812
131014.00085449219
131042.0004272461
131066.00006103516
131245.99731445312
130938.00201416016
130910.00244140625
130962.00164794922
130910.00244140625
131141.9989013672
130990.00122070312
131066.00006103516
131014.00085449219
131042.0004272461
131141.9989013672
131014.00085449219
130962.00164794922
131042.0004272461
130990.00122070312
130938.00201416016
131066.00006103516
131089.99969482422
130990.00122070312
131089.99969482422
131221.99768066406
131042.0004272461
131042.0004272461
131066.00006103516
131089.99969482422
130990.00122070312
131169.9984741211
131221.99768066406
131169.9984741211
131141.9989013672
131221.99768066406
131169.9984741211
131066.00006103516
131141.9989013672
131066.00006103516
130962.00164794922
131089.99969482422
131141.9989013672
131042.0004272461
131117.99926757812
131273.99688720703
131014.00085449219
131066.00006103516
131042.0004272461
131066.00006103516
130962.00164794922
131117.99926757812
131141.9989013672
131066.00006103516
131141.9989013672
131193.99810791016
131089.99969482422
130962.00164794922
131117.99926757812
131066.00006103516
130938.00201416016
131169.9984741211
131089.99969482422
131014.00085449219
131117.99926757812
131221.99768066406
131141.9989013672
131117.99926757812
131169.9984741211
131141.9989013672
130910.00244140625
131089.99969482422
131193.99810791016
131169.9984741211
131117.99926757812
131325.99609375
131089.99969482422
131042.0004272461
131169.9984741211
131117.99926757812
131014.00085449219
131141.9989013672
131169.9984741211
131169.9984741211
131169.9984741211
131245.99731445312
131141.9989013672
131089.99969482422
131089.99969482422
131193.99810791016
130962.00164794922
131221.99768066406
131193.99810791016
131245.99731445312
131193.99810791016
131349.99572753906
131117.99926757812
131169.9984741211
131141.9989013672
131141.9989013672
130938.00201416016
131141.9989013672
131089.99969482422
131089.99969482422
131169.9984741211
131273.99688720703
131066.00006103516
131089.99969482422
131141.9989013672
131066.00006103516
130938.00201416016
131117.99926757812
131117.99926757812
131169.9984741211
131141.9989013672
131245.99731445312
131089.99969482422
130990.00122070312
131193.99810791016
131066.00006103516
130990.00122070312
131141.9989013672
131169.9984741211
131117.99926757812
131089.99969482422
131193.99810791016
131089.99969482422
130990.00122070312
131141.9989013672
131042.0004272461
130938.00201416016
131066.00006103516
131089.99969482422
131169.9984741211
131042.0004272461
131169.9984741211
131042.0004272461
131042.0004272461
131117.99926757812
131141.9989013672
130938.00201416016
131089.99969482422
131193.99810791016
131221.99768066406
131089.99969482422
131273.99688720703
131169.9984741211
131042.0004272461
131141.9989013672
131117.99926757812
130962.00164794922
131193.99810791016
131193.99810791016
131169.9984741211
131221.99768066406
131273.99688720703
131066.00006103516
131042.0004272461
131066.00006103516
131089.99969482422
130938.00201416016
131141.9989013672
131141.9989013672
131117.99926757812
131169.9984741211
131193.99810791016
131042.0004272461
130990.00122070312
131014.00085449219
130962.00164794922
130858.00323486328
131089.99969482422
131014.00085449219
130990.00122070312
131066.00006103516
131245.99731445312
131014.00085449219
131042.0004272461
130962.00164794922
131042.0004272461
130910.00244140625
131193.99810791016
131141.9989013672
131089.99969482422
131193.99810791016
131193.99810791016
131042.0004272461
131089.99969482422
131066.00006103516
131066.00006103516
130910.00244140625
131089.99969482422
131089.99969482422
131014.00085449219
131117.99926757812
131273.99688720703
131066.00006103516
131117.99926757812
131042.0004272461
131089.99969482422
130962.00164794922
131141.9989013672
131141.9989013672
131066.00006103516
131221.99768066406
131297.9965209961
131169.9984741211
131141.9989013672
131169.9984741211
131169.9984741211
131117.99926757812
131245.99731445312
131169.9984741211
131245.99731445312
131245.99731445312
131325.99609375
131221.99768066406
131221.99768066406
131141.9989013672
131193.99810791016
131014.00085449219
131221.99768066406
131273.99688720703
131349.99572753906
131245.99731445312
131349.99572753906
131221.99768066406
131169.9984741211
131141.9989013672
131117.99926757812
131042.0004272461
131193.99810791016
131245.99731445312
131245.99731445312
131193.99810791016
131401.99493408203
131141.9989013672
131221.99768066406
131169.9984741211
131193.99810791016
131042.0004272461
131273.99688720703
131221.99768066406
131325.99609375
131221.99768066406
131325.99609375
131169.9984741211
131273.99688720703
131169.9984741211
131141.9989013672
131066.00006103516
131297.9965209961
131193.99810791016
131273.99688720703
131297.9965209961
131401.99493408203
131245.99731445312
131245.99731445312
131141.9989013672
131221.99768066406
131117.99926757812
131349.99572753906
131193.99810791016
131245.99731445312
131297.9965209961
131349.99572753906
131193.99810791016
131169.9984741211
131221.99768066406
131169.9984741211
131014.00085449219
131089.99969482422
131169.9984741211
131245.99731445312
131221.99768066406
131349.99572753906
131117.99926757812
131169.9984741211
131089.99969482422
131117.99926757812
131042.0004272461
131141.9989013672
131117.99926757812
131193.99810791016
131193.99810791016
131349.99572753906
131245.99731445312
131141.9989013672
131193.99810791016
131245.99731445312
131066.00006103516
131297.9965209961
131273.99688720703
131221.99768066406
131273.99688720703
131273.99688720703
131193.99810791016
131221.99768066406
131117.99926757812
131117.99926757812
131014.00085449219
131169.9984741211
131141.9989013672
131089.99969482422
131141.9989013672
131245.99731445312
131042.0004272461
131042.0004272461
130990.00122070312
131042.0004272461
130990.00122070312
131042.0004272461
131066.00006103516
131066.00006103516
131042.0004272461
131117.99926757812
130990.00122070312
130990.00122070312
130962.00164794922
130990.00122070312
130858.00323486328
131042.0004272461
130990.00122070312
131089.99969482422
131014.00085449219
131089.99969482422
130962.00164794922
130962.00164794922
131066.00006103516
130962.00164794922
130910.00244140625
131042.0004272461
131066.00006103516
131193.99810791016
131042.0004272461
131169.9984741211
131089.99969482422
131141.9989013672
131297.9965209961
131089.99969482422
130990.00122070312
131193.99810791016
131169.9984741211
131169.9984741211
131141.9989013672
131193.99810791016
131042.0004272461
131066.00006103516
131273.99688720703
131042.0004272461
130886.00280761719
131117.99926757812
131117.99926757812
131089.99969482422
131042.0004272461
131141.9989013672
131042.0004272461
131042.0004272461
131117.99926757812
130990.00122070312
130938.00201416016
131089.99969482422
131042.0004272461
131117.99926757812
131089.99969482422
131193.99810791016
130962.00164794922
131042.0004272461
131245.99731445312
131042.0004272461
130910.00244140625
131014.00085449219
131089.99969482422
131117.99926757812
131066.00006103516
131066.00006103516
131014.00085449219
130962.00164794922
131193.99810791016
130962.00164794922
130886.00280761719
131066.00006103516
131066.00006103516
131066.00006103516
131014.00085449219
131066.00006103516
130990.00122070312
130990.00122070312
131169.9984741211
131014.00085449219
130886.00280761719
131042.0004272461
131042.0004272461
131042.0004272461
131014.00085449219
131042.0004272461
131014.00085449219
131014.00085449219
131169.9984741211
130962.00164794922
130886.00280761719
130990.00122070312
130938.00201416016
131042.0004272461
130990.00122070312
130990.00122070312
130858.00323486328
130938.00201416016
131089.99969482422
130858.00323486328
130782.00439453125
130938.00201416016
130910.00244140625
130990.00122070312
130962.00164794922
130938.00201416016
130938.00201416016
130938.00201416016
131014.00085449219
130886.00280761719
130758.00476074219
130990.00122070312
130938.00201416016
130962.00164794922
131014.00085449219
131014.00085449219
130858.00323486328
130938.00201416016
131042.0004272461
130834.00360107422
130758.00476074219
130910.00244140625
130886.00280761719
130938.00201416016
130938.00201416016
131014.00085449219
130858.00323486328
130938.00201416016
131014.00085449219
130886.00280761719
130806.00402832031
130858.00323486328
130910.00244140625
130990.00122070312
130962.00164794922
130990.00122070312
130834.00360107422
130834.00360107422
131042.0004272461
130834.00360107422
130730.00518798828
130910.00244140625
130806.00402832031
130990.00122070312
130990.00122070312
130910.00244140625
130806.00402832031
130938.00201416016
130990.00122070312
130782.00439453125
130758.00476074219
130858.00323486328
130886.00280761719
130886.00280761719
130834.00360107422
130962.00164794922
130834.00360107422
130910.00244140625
130938.00201416016
130806.00402832031
130782.00439453125
130858.00323486328
130910.00244140625
130886.00280761719
130834.00360107422
130938.00201416016
130758.00476074219
130858.00323486328
130962.00164794922
130834.00360107422
130858.00323486328
130886.00280761719
130834.00360107422
130730.00518798828
130910.00244140625
131014.00085449219
130886.00280761719
130858.00323486328
131042.0004272461
130834.00360107422
130834.00360107422
130886.00280761719
130886.00280761719
130910.00244140625
130886.00280761719
131014.00085449219
130858.00323486328
130858.00323486328
131014.00085449219
130806.00402832031
130910.00244140625
130886.00280761719
131014.00085449219
130858.00323486328
131042.0004272461
130990.00122070312
130962.00164794922
130938.00201416016
131089.99969482422
130990.00122070312
130938.00201416016
130990.00122070312
130990.00122070312
130886.00280761719
131042.0004272461
131014.00085449219
131089.99969482422
130990.00122070312
131117.99926757812
131014.00085449219
130910.00244140625
131066.00006103516
131014.00085449219
130886.00280761719
131117.99926757812
131089.99969482422
131089.99969482422
131042.0004272461
131141.9989013672
130990.00122070312
130938.00201416016
130910.00244140625
130962.00164794922
130834.00360107422
130962.00164794922
130990.00122070312
131014.00085449219
130938.00201416016
131014.00085449219
130858.00323486328
130858.00323486328
130886.00280761719
130910.00244140625
130806.00402832031
130910.00244140625
131066.00006103516
130990.00122070312
130962.00164794922
131066.00006103516
130910.00244140625
130858.00323486328
130858.00323486328
130910.00244140625
130806.00402832031
130938.00201416016
130938.00201416016
130886.00280761719
130910.00244140625
131089.99969482422
130910.00244140625
130834.00360107422
130938.00201416016
130938.00201416016
130782.00439453125
130910.00244140625
130886.00280761719
130938.00201416016
130938.00201416016
131014.00085449219
130858.00323486328
130834.00360107422
130962.00164794922
130910.00244140625
130758.00476074219
130990.00122070312
130962.00164794922
131014.00085449219
131014.00085449219
131141.9989013672
130990.00122070312
130962.00164794922
131042.0004272461
131042.0004272461
130858.00323486328
131042.0004272461
131042.0004272461
131014.00085449219
131117.99926757812
131066.00006103516
130990.00122070312
130990.00122070312
131089.99969482422
131066.00006103516
130910.00244140625
131089.99969482422
131117.99926757812
131117.99926757812
131042.0004272461
131141.9989013672
131014.00085449219
130990.00122070312
131089.99969482422
131042.0004272461
130886.00280761719
131089.99969482422
131141.9989013672
131042.0004272461
131089.99969482422
131245.99731445312
131014.00085449219
131042.0004272461
131141.9989013672
131066.00006103516
130886.00280761719
131066.00006103516
131141.9989013672
131066.00006103516
131117.99926757812
131273.99688720703
131014.00085449219
131089.99969482422
131089.99969482422
131042.0004272461
130910.00244140625
131141.9989013672
131089.99969482422
131014.00085449219
131014.00085449219
131221.99768066406
130990.00122070312
130910.00244140625
131042.0004272461
131014.00085449219
130962.00164794922
131089.99969482422
131089.99969482422
131117.99926757812
131089.99969482422
131221.99768066406
131117.99926757812
131066.00006103516
131141.9989013672
131066.00006103516
131042.0004272461
131169.9984741211
131117.99926757812
131117.99926757812
131117.99926757812
131193.99810791016
131042.0004272461
131014.00085449219
131066.00006103516
131014.00085449219
130910.00244140625
131117.99926757812
130990.00122070312
131141.9989013672
131089.99969482422
131141.9989013672
131089.99969482422
131042.0004272461
131169.9984741211
131141.9989013672
131066.00006103516
131169.9984741211
131221.99768066406
131089.99969482422
131245.99731445312
131273.99688720703
131117.99926757812
131066.00006103516
131042.0004272461
131066.00006103516
130910.00244140625
131141.9989013672
131193.99810791016
131169.9984741211
131193.99810791016
131221.99768066406
131042.0004272461
130990.00122070312
131066.00006103516
131042.0004272461
130886.00280761719
131193.99810791016
131089.99969482422
131141.9989013672
131141.9989013672
131273.99688720703
131066.00006103516
131089.99969482422
131117.99926757812
131141.9989013672
131042.0004272461
131169.9984741211
131193.99810791016
131193.99810791016
131169.9984741211
131325.99609375
131042.0004272461
131042.0004272461
131117.99926757812
131042.0004272461
130962.00164794922
131117.99926757812
131089.99969482422
131089.99969482422
131066.00006103516
131325.99609375
131089.99969482422
131089.99969482422
131089.99969482422
131066.00006103516
130886.00280761719
131169.9984741211
131193.99810791016
131169.9984741211
131141.9989013672
131245.99731445312
131042.0004272461
131014.00085449219
131193.99810791016
131193.99810791016
130962.00164794922
131117.99926757812
131141.9989013672
131089.99969482422
131117.99926757812
131273.99688720703
131042.0004272461
131089.99969482422
130990.00122070312
130990.00122070312
130806.00402832031
131042.0004272461
131089.99969482422
131066.00006103516
130990.00122070312
131141.9989013672
131014.00085449219
130938.00201416016
130990.00122070312
130990.00122070312
130858.00323486328
131014.00085449219
131042.0004272461
131066.00006103516
131042.0004272461
131117.99926757812
131089.99969482422
131066.00006103516
131014.00085449219
131089.99969482422
130910.00244140625
131193.99810791016
131066.00006103516
131169.9984741211
131141.9989013672
131221.99768066406
131141.9989013672
131066.00006103516
131066.00006103516
131014.00085449219
130962.00164794922
131193.99810791016
131089.99969482422
131117.99926757812
131169.9984741211
131245.99731445312
131066.00006103516
131066.00006103516
131117.99926757812
131042.0004272461
130910.00244140625
131141.9989013672
131117.99926757812
131066.00006103516
131169.9984741211
131141.9989013672
131014.00085449219
130962.00164794922
130962.00164794922
131014.00085449219
130938.00201416016
131089.99969482422
131089.99969482422
131089.99969482422
131089.99969482422
131193.99810791016
131089.99969482422
131014.00085449219
131066.00006103516
131089.99969482422
130990.00122070312
131169.9984741211
131141.9989013672
131141.9989013672
131141.9989013672
131245.99731445312
131066.00006103516
131066.00006103516
131066.00006103516
131014.00085449219
130962.00164794922
131117.99926757812
131089.99969482422
131066.00006103516
131089.99969482422
131169.9984741211
130990.00122070312
130962.00164794922
130990.00122070312
130990.00122070312
130938.00201416016
131141.9989013672
131042.0004272461
131117.99926757812
131089.99969482422
131221.99768066406
131014.00085449219
131117.99926757812
130938.00201416016
131014.00085449219
130834.00360107422
131014.00085449219
130938.00201416016
130990.00122070312
131014.00085449219
131117.99926757812
130938.00201416016
130990.00122070312
130910.00244140625
130990.00122070312
130858.00323486328
130962.00164794922
130962.00164794922
131089.99969482422
130990.00122070312
131117.99926757812
130806.00402832031
130962.00164794922
130834.00360107422
130910.00244140625
130782.00439453125
130910.00244140625
130938.00201416016
130990.00122070312
130938.00201416016
131042.0004272461
130886.00280761719
130858.00323486328
130834.00360107422
130858.00323486328
130758.00476074219
130886.00280761719
130858.00323486328
130806.00402832031
130910.00244140625
131042.0004272461
130806.00402832031
130886.00280761719
130834.00360107422
130858.00323486328
130730.00518798828
130886.00280761719
130806.00402832031
130938.00201416016
130858.00323486328
130962.00164794922
130782.00439453125
130858.00323486328
130782.00439453125
130858.00323486328
130678.00598144531
130806.00402832031
130834.00360107422
130886.00280761719
130834.00360107422
131014.00085449219
130834.00360107422
130806.00402832031
130806.00402832031
130858.00323486328
130834.00360107422
130886.00280761719
130806.00402832031
130858.00323486328
130834.00360107422
130938.00201416016
130758.00476074219
130806.00402832031
130730.00518798828
130678.00598144531
130626.00677490234
130834.00360107422
130678.00598144531
130730.00518798828
130782.00439453125
130834.00360107422
130782.00439453125
130758.00476074219
130678.00598144531
130730.00518798828
130626.00677490234
130806.00402832031
130654.00634765625
130782.00439453125
130758.00476074219
130806.00402832031
130782.00439453125
130730.00518798828
130678.00598144531
130782.00439453125
130626.00677490234
130782.00439453125
130706.00555419922
130758.00476074219
130730.00518798828
130758.00476074219
130678.00598144531
130678.00598144531
130806.00402832031
130678.00598144531
130626.00677490234
130626.00677490234
130730.00518798828
130730.00518798828
130706.00555419922
130834.00360107422
130654.00634765625
130730.00518798828
130886.00280761719
130678.00598144531
130654.00634765625
130706.00555419922
130654.00634765625
130730.00518798828
130730.00518798828
130782.00439453125
130730.00518798828
130654.00634765625
130574.00756835938
130626.00677490234
130654.00634765625
130678.00598144531
130758.00476074219
130706.00555419922
130730.00518798828
130806.00402832031
130758.00476074219
130806.00402832031
130782.00439453125
130782.00439453125
130758.00476074219
130834.00360107422
130858.00323486328
130758.00476074219
130834.00360107422
130858.00323486328
130730.00518798828
130782.00439453125
130962.00164794922
130758.00476074219
130730.00518798828
130834.00360107422
130858.00323486328
130886.00280761719
130858.00323486328
130938.00201416016
130758.00476074219
130782.00439453125
131014.00085449219
130782.00439453125
130782.00439453125
130910.00244140625
130834.00360107422
130910.00244140625
130910.00244140625
130910.00244140625
130834.00360107422
130782.00439453125
131014.00085449219
130834.00360107422
130758.00476074219
130834.00360107422
130806.00402832031
130834.00360107422
130806.00402832031
130962.00164794922
130910.00244140625
130858.00323486328
131066.00006103516
130834.00360107422
130758.00476074219
130938.00201416016
130910.00244140625
130938.00201416016
130938.00201416016
130990.00122070312
130910.00244140625
131014.00085449219
131169.9984741211
131042.0004272461
130910.00244140625
131042.0004272461
131014.00085449219
131089.99969482422
131042.0004272461
131014.00085449219
131014.00085449219
131089.99969482422
131169.9984741211
130990.00122070312
131014.00085449219
131089.99969482422
131014.00085449219
131089.99969482422
131089.99969482422
131066.00006103516
130962.00164794922
131042.0004272461
131066.00006103516
131014.00085449219
131014.00085449219
131089.99969482422
131042.0004272461
131141.9989013672
131117.99926757812
131141.9989013672
131089.99969482422
131141.9989013672
131245.99731445312
131089.99969482422
131066.00006103516
131117.99926757812
131221.99768066406
131221.99768066406
131169.9984741211
131169.9984741211
131141.9989013672
131089.99969482422
131325.99609375
131089.99969482422
131066.00006103516
131066.00006103516
131066.00006103516
131141.9989013672
131066.00006103516
131066.00006103516
131014.00085449219
131014.00085449219
131169.9984741211
130910.00244140625
130910.00244140625
131089.99969482422
131117.99926757812
131117.99926757812
131042.0004272461
131089.99969482422
131014.00085449219
130990.00122070312
131089.99969482422
130910.00244140625
130782.00439453125
130990.00122070312
130858.00323486328
130938.00201416016
130990.00122070312
131014.00085449219
130910.00244140625
130990.00122070312
131117.99926757812
130962.00164794922
130910.00244140625
131014.00085449219
130910.00244140625
130962.00164794922
131042.0004272461
131089.99969482422
130938.00201416016
130938.00201416016
131089.99969482422
130886.00280761719
130962.00164794922
130990.00122070312
130938.00201416016
130886.00280761719
130990.00122070312
131117.99926757812
130990.00122070312
130990.00122070312
131141.9989013672
130990.00122070312
130962.00164794922
130910.00244140625
130910.00244140625
130858.00323486328
130938.00201416016
130990.00122070312
130938.00201416016
130962.00164794922
131089.99969482422
130886.00280761719
130962.00164794922
130938.00201416016
130990.00122070312
131014.00085449219
131014.00085449219
130990.00122070312
130990.00122070312
131042.0004272461
131169.9984741211
130962.00164794922
130886.00280761719
131066.00006103516
131042.0004272461
131117.99926757812
131042.0004272461
131117.99926757812
131117.99926757812
131066.00006103516
131117.99926757812
131089.99969482422
131042.0004272461
131169.9984741211
131066.00006103516
131042.0004272461
131141.9989013672
131117.99926757812
131141.9989013672
131117.99926757812
131221.99768066406
131042.0004272461
130962.00164794922
131066.00006103516
131014.00085449219
130858.00323486328
131089.99969482422
131089.99969482422
131066.00006103516
131141.9989013672
131193.99810791016
131066.00006103516
131066.00006103516
131117.99926757812
131221.99768066406
131014.00085449219
131117.99926757812
131169.9984741211
131117.99926757812
131117.99926757812
131193.99810791016
131066.00006103516
131042.0004272461
131193.99810791016
131141.9989013672
131014.00085449219
131169.9984741211
131117.99926757812
131169.9984741211
131169.9984741211
131273.99688720703
131169.9984741211
131117.99926757812
131169.9984741211
131169.9984741211
131066.00006103516
131141.9989013672
131193.99810791016
131169.9984741211
131193.99810791016
131273.99688720703
131089.99969482422
131117.99926757812
131117.99926757812
131141.9989013672
131066.00006103516
131221.99768066406
131273.99688720703
131221.99768066406
131273.99688720703
131349.99572753906
131169.9984741211
131089.99969482422
131193.99810791016
131141.9989013672
130962.00164794922
131193.99810791016
131273.99688720703
131169.9984741211
131221.99768066406
131349.99572753906
131141.9989013672
131193.99810791016
131245.99731445312
131193.99810791016
131014.00085449219
131273.99688720703
131273.99688720703
131221.99768066406
131273.99688720703
131401.99493408203
131169.9984741211
131089.99969482422
131193.99810791016
131193.99810791016
131141.9989013672
131297.9965209961
131221.99768066406
131297.9965209961
131373.99536132812
131373.99536132812
131273.99688720703
131297.9965209961
131349.99572753906
131325.99609375
131089.99969482422
131373.99536132812
131401.99493408203
131273.99688720703
131373.99536132812
131425.9945678711
131325.99609375
131325.99609375
131325.99609375
131273.99688720703
131221.99768066406
131325.99609375
131401.99493408203
131373.99536132812
131373.99536132812
131477.99377441406
131325.99609375
131297.9965209961
131425.9945678711
131373.99536132812
131193.99810791016
131453.994140625
131453.994140625
131477.99377441406
131425.9945678711
131505.99334716797
131425.9945678711
131325.99609375
131401.99493408203
131373.99536132812
131193.99810791016
131401.99493408203
131425.9945678711
131373.99536132812
131477.99377441406
131505.99334716797
131349.99572753906
131401.99493408203
131453.994140625
131349.99572753906
131221.99768066406
131477.99377441406
131505.99334716797
131425.9945678711
131453.994140625
131557.99255371094
131425.9945678711
131401.99493408203
131453.994140625
131373.99536132812
131245.99731445312
131401.99493408203
131453.994140625
131401.99493408203
131373.99536132812
131557.99255371094
131401.99493408203
131401.99493408203
131425.9945678711
131425.9945678711
131193.99810791016
131401.99493408203
131453.994140625
131425.9945678711
131373.99536132812
131505.99334716797
131401.99493408203
131401.99493408203
131477.99377441406
131401.99493408203
131245.99731445312
131505.99334716797
131401.99493408203
131453.994140625
131453.994140625
131557.99255371094
131401.99493408203
131373.99536132812
131453.994140625
131477.99377441406
131245.99731445312
131529.99298095703
131477.99377441406
131529.99298095703
131505.99334716797
131581.9921875
131373.99536132812
131349.99572753906
131505.99334716797
131453.994140625
131297.9965209961
131505.99334716797
131453.994140625
131453.994140625
131477.99377441406
131633.99139404297
131425.9945678711
131453.994140625
131477.99377441406
131349.99572753906
131297.9965209961
131477.99377441406
131477.99377441406
131425.9945678711
131425.9945678711
131581.9921875
131401.99493408203
131373.99536132812
131425.9945678711
131325.99609375
131221.99768066406
131425.9945678711
131325.99609375
131325.99609375
131425.9945678711
131505.99334716797
131425.9945678711
131325.99609375
131325.99609375
131373.99536132812
131169.9984741211
131401.99493408203
131325.99609375
131349.99572753906
131325.99609375
131373.99536132812
131245.99731445312
131193.99810791016
131117.99926757812
131221.99768066406
130962.00164794922
131297.9965209961
131193.99810791016
131273.99688720703
131169.9984741211
131325.99609375
131193.99810791016
131117.99926757812
131141.9989013672
131245.99731445312
131117.99926757812
131273.99688720703
131245.99731445312
131221.99768066406
131245.99731445312
131349.99572753906
131245.99731445312
131169.9984741211
131221.99768066406
131245.99731445312
131066.00006103516
131245.99731445312
131245.99731445312
131141.9989013672
131141.9989013672
131325.99609375
131141.9989013672
131169.9984741211
131221.99768066406
131141.9989013672
131014.00085449219
131193.99810791016
131169.9984741211
131273.99688720703
131193.99810791016
131273.99688720703
131193.99810791016
131117.99926757812
131169.9984741211
131193.99810791016
130990.00122070312
131193.99810791016
131221.99768066406
131169.9984741211
131273.99688720703
131349.99572753906
131221.99768066406
131169.9984741211
131273.99688720703
131193.99810791016
131117.99926757812
131297.9965209961
131273.99688720703
131325.99609375
131297.9965209961
131325.99609375
131297.9965209961
131245.99731445312
131193.99810791016
131297.9965209961
131141.9989013672
131325.99609375
131273.99688720703
131325.99609375
131349.99572753906
131425.9945678711
131297.9965209961
131273.99688720703
131221.99768066406
131297.9965209961
131089.99969482422
131325.99609375
131297.9965209961
131273.99688720703
131325.99609375
131373.99536132812
131193.99810791016
131245.99731445312
131245.99731445312
131245.99731445312
131117.99926757812
131273.99688720703
131273.99688720703
131297.9965209961
131297.9965209961
131425.9945678711
131245.99731445312
131273.99688720703
131193.99810791016
131169.9984741211
131014.00085449219
131221.99768066406
131193.99810791016
131193.99810791016
131221.99768066406
131273.99688720703
131117.99926757812
131169.9984741211
131042.0004272461
131066.00006103516
131042.0004272461
131141.9989013672
131169.9984741211
131193.99810791016
131141.9989013672
131193.99810791016
131117.99926757812
131117.99926757812
130962.00164794922
131042.0004272461
130938.00201416016
131117.99926757812
131066.00006103516
131089.99969482422
131193.99810791016
131245.99731445312
131042.0004272461
131089.99969482422
131089.99969482422
131042.0004272461
130938.00201416016
131245.99731445312
131141.9989013672
131193.99810791016
131141.9989013672
131245.99731445312
131117.99926757812
131117.99926757812
131066.00006103516
131042.0004272461
130990.00122070312
131117.99926757812
131042.0004272461
131141.9989013672
131042.0004272461
131169.9984741211
130990.00122070312
131042.0004272461
130990.00122070312
131042.0004272461
130962.00164794922
131089.99969482422
131169.9984741211
131089.99969482422
131117.99926757812
131297.9965209961
131117.99926757812
131117.99926757812
131066.00006103516
131089.99969482422
130962.00164794922
131169.9984741211
131141.9989013672
131169.9984741211
131221.99768066406
131193.99810791016
131117.99926757812
131193.99810791016
131066.00006103516
131089.99969482422
130938.00201416016
131193.99810791016
131141.9989013672
131169.9984741211
131089.99969482422
131221.99768066406
131141.9989013672
131089.99969482422
131066.00006103516
131089.99969482422
131042.0004272461
131089.99969482422
131066.00006103516
131117.99926757812
131141.9989013672
131193.99810791016
131117.99926757812
131089.99969482422
131066.00006103516
131042.0004272461
130938.00201416016
131014.00085449219
131169.9984741211
131066.00006103516
131089.99969482422
131193.99810791016
131042.0004272461
131089.99969482422
131014.00085449219
131014.00085449219
130858.00323486328
131066.00006103516
131089.99969482422
131141.9989013672
131014.00085449219
131141.9989013672
131042.0004272461
131014.00085449219
131014.00085449219
131014.00085449219
130962.00164794922
131042.0004272461
131089.99969482422
131117.99926757812
131117.99926757812
131141.9989013672
131066.00006103516
131169.9984741211
131042.0004272461
131042.0004272461
130962.00164794922
131117.99926757812
131066.00006103516
131089.99969482422
131066.00006103516
131066.00006103516
131014.00085449219
131066.00006103516
131042.0004272461
130990.00122070312
130886.00280761719
131066.00006103516
131014.00085449219
131141.9989013672
131141.9989013672
131141.9989013672
131042.0004272461
131117.99926757812
131193.99810791016
131089.99969482422
131066.00006103516
131117.99926757812
131117.99926757812
131117.99926757812
131117.99926757812
131169.9984741211
131042.0004272461
131141.9989013672
131117.99926757812
131089.99969482422
131042.0004272461
131193.99810791016
131141.9989013672
131117.99926757812
131169.9984741211
131221.99768066406
131042.0004272461
131089.99969482422
131089.99969482422
131066.00006103516
130938.00201416016
131193.99810791016
131089.99969482422
131066.00006103516
131066.00006103516
131169.9984741211
131089.99969482422
131141.9989013672
131169.9984741211
131089.99969482422
130990.00122070312
131141.9989013672
131117.99926757812
131117.99926757812
131169.9984741211
131169.9984741211
131042.0004272461
131089.99969482422
131273.99688720703
131089.99969482422
131042.0004272461
131141.9989013672
131141.9989013672
131141.9989013672
131117.99926757812
131221.99768066406
131066.00006103516
131089.99969482422
131193.99810791016
130990.00122070312
130938.00201416016
131089.99969482422
131066.00006103516
131117.99926757812
131193.99810791016
131169.9984741211
131089.99969482422
131066.00006103516
131221.99768066406
131066.00006103516
131042.0004272461
131117.99926757812
131042.0004272461
131141.9989013672
131117.99926757812
131169.9984741211
131089.99969482422
131042.0004272461
131169.9984741211
131089.99969482422
130858.00323486328
131089.99969482422
131014.00085449219
130990.00122070312
130938.00201416016
131066.00006103516
131014.00085449219
130910.00244140625
131066.00006103516
130910.00244140625
130806.00402832031
130910.00244140625
130938.00201416016
130962.00164794922
131014.00085449219
131014.00085449219
130886.00280761719
130886.00280761719
131089.99969482422
130962.00164794922
130858.00323486328
130938.00201416016
130962.00164794922
131089.99969482422
131014.00085449219
131066.00006103516
130962.00164794922
130962.00164794922
131066.00006103516
130858.00323486328
130806.00402832031
130962.00164794922
130938.00201416016
130962.00164794922
130886.00280761719
130962.00164794922
130910.00244140625
130886.00280761719
130990.00122070312
130858.00323486328
130806.00402832031
130886.00280761719
130858.00323486328
130990.00122070312
130806.00402832031
130938.00201416016
130858.00323486328
130858.00323486328
130990.00122070312
130758.00476074219
130730.00518798828
130806.00402832031
130806.00402832031
130858.00323486328
130806.00402832031
130910.00244140625
130806.00402832031
130758.00476074219
130938.00201416016
130706.00555419922
130654.00634765625
130782.00439453125
130758.00476074219
130758.00476074219
130758.00476074219
130758.00476074219
130678.00598144531
130730.00518798828
130834.00360107422
130678.00598144531
130526.00830078125
130678.00598144531
130730.00518798828
130806.00402832031
130782.00439453125
130782.00439453125
130626.00677490234
130758.00476074219
130758.00476074219
130678.00598144531
130602.00714111328
130730.00518798828
130706.00555419922
130758.00476074219
130706.00555419922
130730.00518798828
130730.00518798828
130678.00598144531
130910.00244140625
130626.00677490234
130602.00714111328
130758.00476074219
130782.00439453125
130758.00476074219
130834.00360107422
130858.00323486328
130806.00402832031
130806.00402832031
130962.00164794922
130758.00476074219
130806.00402832031
130782.00439453125
130806.00402832031
130834.00360107422
130806.00402832031
130834.00360107422
130782.00439453125
130782.00439453125
130886.00280761719
130758.00476074219
130626.00677490234
130706.00555419922
130706.00555419922
130602.00714111328
130626.00677490234
130806.00402832031
130678.00598144531
130782.00439453125
130834.00360107422
130730.00518798828
130706.00555419922
130758.00476074219
130706.00555419922
130806.00402832031
130782.00439453125
130858.00323486328
130758.00476074219
130834.00360107422
130910.00244140625
130782.00439453125
130758.00476074219
130834.00360107422
130782.00439453125
130910.00244140625
130782.00439453125
130834.00360107422
130758.00476074219
130834.00360107422
131066.00006103516
130886.00280761719
130806.00402832031
130834.00360107422
130858.00323486328
131042.0004272461
130990.00122070312
131117.99926757812
131042.0004272461
130962.00164794922
131117.99926757812
131042.0004272461
130938.00201416016
131089.99969482422
131117.99926757812
131066.00006103516
131066.00006103516
131141.9989013672
130962.00164794922
131042.0004272461
131066.00006103516
130938.00201416016
130886.00280761719
131042.0004272461
131014.00085449219
130910.00244140625
131066.00006103516
131066.00006103516
131014.00085449219
131117.99926757812
131169.9984741211
130990.00122070312
131042.0004272461
131117.99926757812
131117.99926757812
131042.0004272461
131169.9984741211
131193.99810791016
131169.9984741211
131141.9989013672
131221.99768066406
131169.9984741211
131089.99969482422
131141.9989013672
131089.99969482422
131273.99688720703
131221.99768066406
131169.9984741211
131193.99810791016
131089.99969482422
131297.9965209961
131141.9989013672
131066.00006103516
131193.99810791016
131141.9989013672
130962.00164794922
131089.99969482422
131117.99926757812
130938.00201416016
131014.00085449219
131141.9989013672
130990.00122070312
130834.00360107422
130990.00122070312
130938.00201416016
131042.0004272461
130990.00122070312
130910.00244140625
130938.00201416016
130910.00244140625
130962.00164794922
130910.00244140625
130806.00402832031
130962.00164794922
130938.00201416016
130806.00402832031
130962.00164794922
130990.00122070312
130962.00164794922
130962.00164794922
131014.00085449219
130834.00360107422
130858.00323486328
130938.00201416016
130910.00244140625
130782.00439453125
130910.00244140625
130990.00122070312
130990.00122070312
130962.00164794922
131117.99926757812
130910.00244140625
130858.00323486328
130962.00164794922
130990.00122070312
130782.00439453125
130990.00122070312
131014.00085449219
130858.00323486328
130938.00201416016
130990.00122070312
130938.00201416016
130834.00360107422
130910.00244140625
130910.00244140625
130730.00518798828
130962.00164794922
130962.00164794922
130886.00280761719
130962.00164794922
131014.00085449219
130886.00280761719
130858.00323486328
130910.00244140625
130858.00323486328
130730.00518798828
130938.00201416016
131014.00085449219
130938.00201416016
130938.00201416016
131042.0004272461
130834.00360107422
130858.00323486328
130886.00280761719
130858.00323486328
130678.00598144531
130910.00244140625
130962.00164794922
130990.00122070312
130962.00164794922
131117.99926757812
131014.00085449219
130938.00201416016
131042.0004272461
130990.00122070312
130806.00402832031
130990.00122070312
131014.00085449219
130938.00201416016
130938.00201416016
131014.00085449219
130858.00323486328
130858.00323486328
130990.00122070312
130962.00164794922
130834.00360107422
130990.00122070312
130938.00201416016
130910.00244140625
130962.00164794922
131014.00085449219
130910.00244140625
130834.00360107422
130886.00280761719
130858.00323486328
130834.00360107422
130962.00164794922
131014.00085449219
130886.00280761719
130962.00164794922
131089.99969482422
130990.00122070312
130962.00164794922
130962.00164794922
130938.00201416016
130782.00439453125
130938.00201416016
130938.00201416016
130938.00201416016
131089.99969482422
131089.99969482422
130962.00164794922
131014.00085449219
130990.00122070312
130938.00201416016
130858.00323486328
131193.99810791016
131014.00085449219
131066.00006103516
131042.0004272461
131221.99768066406
131042.0004272461
130938.00201416016
131066.00006103516
130962.00164794922
130910.00244140625
131089.99969482422
131089.99969482422
130938.00201416016
131089.99969482422
131169.9984741211
130962.00164794922
131014.00085449219
130962.00164794922
130962.00164794922
130858.00323486328
130990.00122070312
131014.00085449219
130962.00164794922
131014.00085449219
131066.00006103516
130938.00201416016
130910.00244140625
130962.00164794922
130962.00164794922
130806.00402832031
130990.00122070312
131066.00006103516
130990.00122070312
130990.00122070312
131141.9989013672
131014.00085449219
130910.00244140625
130910.00244140625
130938.00201416016
130858.00323486328
131066.00006103516
131014.00085449219
131014.00085449219
131014.00085449219
131089.99969482422
130910.00244140625
130858.00323486328
131014.00085449219
131014.00085449219
130858.00323486328
131066.00006103516
131066.00006103516
131089.99969482422
131089.99969482422
131193.99810791016
131042.0004272461
130962.00164794922
131066.00006103516
131042.0004272461
130938.00201416016
131066.00006103516
131042.0004272461
131066.00006103516
131089.99969482422
131193.99810791016
130990.00122070312
131014.00085449219
131117.99926757812
131066.00006103516
130938.00201416016
131089.99969482422
131089.99969482422
131042.0004272461
131066.00006103516
131066.00006103516
130962.00164794922
130990.00122070312
131089.99969482422
130938.00201416016
130938.00201416016
131042.0004272461
131141.9989013672
131042.0004272461
130910.00244140625
131169.9984741211
130962.00164794922
130962.00164794922
130910.00244140625
130938.00201416016
130730.00518798828
130910.00244140625
130910.00244140625
130910.00244140625
130938.00201416016
131014.00085449219
130858.00323486328
130910.00244140625
130886.00280761719
130886.00280761719
130706.00555419922
130962.00164794922
130938.00201416016
130886.00280761719
131042.0004272461
131141.9989013672
131066.00006103516
130910.00244140625
130962.00164794922
131014.00085449219
130886.00280761719
131042.0004272461
131117.99926757812
131014.00085449219
131066.00006103516
131221.99768066406
130990.00122070312
130962.00164794922
130938.00201416016
131014.00085449219
130886.00280761719
130990.00122070312
131014.00085449219
131089.99969482422
131014.00085449219
131193.99810791016
131014.00085449219
131089.99969482422
130962.00164794922
131089.99969482422
130886.00280761719
131014.00085449219
131141.9989013672
131042.0004272461
131042.0004272461
131169.9984741211
131014.00085449219
130962.00164794922
131042.0004272461
131014.00085449219
130886.00280761719
131014.00085449219
131042.0004272461
131014.00085449219
131066.00006103516
131193.99810791016
131066.00006103516
131014.00085449219
131042.0004272461
131042.0004272461
130910.00244140625
131141.9989013672
131066.00006103516
131169.9984741211
131141.9989013672
131245.99731445312
131014.00085449219
130990.00122070312
131117.99926757812
131089.99969482422
130962.00164794922
131089.99969482422
131089.99969482422
131066.00006103516
131014.00085449219
131193.99810791016
131066.00006103516
131066.00006103516
131014.00085449219
130990.00122070312
130938.00201416016
131117.99926757812
131089.99969482422
131141.9989013672
131066.00006103516
131193.99810791016
131066.00006103516
131117.99926757812
131169.9984741211
131117.99926757812
131014.00085449219
131169.9984741211
131141.9989013672
131141.9989013672
131117.99926757812
131273.99688720703
130990.00122070312
131042.0004272461
131042.0004272461
131066.00006103516
130938.00201416016
131117.99926757812
131089.99969482422
131141.9989013672
131221.99768066406
131325.99609375
131117.99926757812
131141.9989013672
131117.99926757812
131169.9984741211
131042.0004272461
131141.9989013672
131221.99768066406
131141.9989013672
131169.9984741211
131245.99731445312
131141.9989013672
131089.99969482422
131117.99926757812
131141.9989013672
130962.00164794922
131117.99926757812
131117.99926757812
131141.9989013672
131117.99926757812
131221.99768066406
131089.99969482422
131141.9989013672
131141.9989013672
131066.00006103516
130990.00122070312
131117.99926757812
131117.99926757812
131169.9984741211
131117.99926757812
131245.99731445312
131169.9984741211
131117.99926757812
131042.0004272461
131117.99926757812
131042.0004272461
131169.9984741211
131169.9984741211
131169.9984741211
131297.9965209961
131273.99688720703
131169.9984741211
131117.99926757812
131141.9989013672
131066.00006103516
131014.00085449219
131221.99768066406
131245.99731445312
131169.9984741211
131169.9984741211
131325.99609375
131193.99810791016
131141.9989013672
131169.9984741211
131089.99969482422
131014.00085449219
131169.9984741211
131141.9989013672
131193.99810791016
131169.9984741211
131297.9965209961
131066.00006103516
131141.9989013672
131066.00006103516
131089.99969482422
130990.00122070312
131089.99969482422
131117.99926757812
131169.9984741211
131169.9984741211
131273.99688720703
131141.9989013672
131141.9989013672
131014.00085449219
131117.99926757812
130990.00122070312
131169.9984741211
131193.99810791016
131117.99926757812
131117.99926757812
131193.99810791016
131066.00006103516
131014.00085449219
130962.00164794922
131042.0004272461
130886.00280761719
131014.00085449219
131066.00006103516
131066.00006103516
131042.0004272461
131141.9989013672
131066.00006103516
130990.00122070312
130962.00164794922
131014.00085449219
130938.00201416016
131042.0004272461
131066.00006103516
131014.00085449219
131117.99926757812
131169.9984741211
131042.0004272461
131014.00085449219
131014.00085449219
131014.00085449219
130886.00280761719
131117.99926757812
131117.99926757812
131066.00006103516
131193.99810791016
131221.99768066406
131089.99969482422
131042.0004272461
130990.00122070312
131141.9989013672
130962.00164794922
131169.9984741211
131117.99926757812
131193.99810791016
131169.9984741211
131221.99768066406
131042.0004272461
131066.00006103516
131042.0004272461
131066.00006103516
130938.00201416016
131117.99926757812
131066.00006103516
131193.99810791016
131117.99926757812
131193.99810791016
131089.99969482422
131042.0004272461
131042.0004272461
131014.00085449219
130834.00360107422
131042.0004272461
131089.99969482422
131066.00006103516
130990.00122070312
131169.9984741211
130962.00164794922
130962.00164794922
130938.00201416016
130938.00201416016
130758.00476074219
130938.00201416016
130962.00164794922
131042.0004272461
130962.00164794922
131117.99926757812
130990.00122070312
130962.00164794922
130886.00280761719
130990.00122070312
130858.00323486328
131066.00006103516
131089.99969482422
131066.00006103516
131089.99969482422
131169.9984741211
130886.00280761719
130962.00164794922
130886.00280761719
130962.00164794922
130782.00439453125
130990.00122070312
130938.00201416016
130990.00122070312
130990.00122070312
131089.99969482422
130938.00201416016
130910.00244140625
130834.00360107422
130886.00280761719
130758.00476074219
130990.00122070312
130910.00244140625
130910.00244140625
130938.00201416016
130938.00201416016
130834.00360107422
130910.00244140625
130910.00244140625
130886.00280761719
130886.00280761719
130962.00164794922
131014.00085449219
131014.00085449219
131089.99969482422
131141.9989013672
130962.00164794922
131066.00006103516
130990.00122070312
130962.00164794922
130938.00201416016
131066.00006103516
130990.00122070312
131042.0004272461
130990.00122070312
131169.9984741211
130886.00280761719
130990.00122070312
130910.00244140625
130858.00323486328
130730.00518798828
130938.00201416016
130938.00201416016
130962.00164794922
130962.00164794922
131066.00006103516
130938.00201416016
130834.00360107422
131066.00006103516
130938.00201416016
130806.00402832031
131042.0004272461
130990.00122070312
131089.99969482422
131042.0004272461
131141.9989013672
130910.00244140625
131066.00006103516
131014.00085449219
130962.00164794922
130834.00360107422
130990.00122070312
130962.00164794922
130990.00122070312
131014.00085449219
130962.00164794922
130910.00244140625
130962.00164794922
130962.00164794922
130938.00201416016
130858.00323486328
131042.0004272461
131014.00085449219
131014.00085449219
131014.00085449219
131089.99969482422
130990.00122070312
130962.00164794922
130962.00164794922
130962.00164794922
130806.00402832031
130990.00122070312
130938.00201416016
130962.00164794922
131014.00085449219
131066.00006103516
130910.00244140625
130938.00201416016
130990.00122070312
130962.00164794922
130858.00323486328
131014.00085449219
131014.00085449219
131014.00085449219
131117.99926757812
131221.99768066406
131014.00085449219
131066.00006103516
130962.00164794922
131014.00085449219
131014.00085449219
131141.9989013672
131169.9984741211
131169.9984741211
131169.9984741211
131297.9965209961
131141.9989013672
131245.99731445312
131117.99926757812
131117.99926757812
131014.00085449219
131169.9984741211
131169.9984741211
131221.99768066406
131245.99731445312
131325.99609375
131193.99810791016
131193.99810791016
131141.9989013672
131117.99926757812
131042.0004272461
131169.9984741211
131089.99969482422
131141.9989013672
131245.99731445312
131221.99768066406
131141.9989013672
131141.9989013672
131141.9989013672
131169.9984741211
131117.99926757812
131221.99768066406
131141.9989013672
131273.99688720703
131193.99810791016
131221.99768066406
131141.9989013672
131169.9984741211
131066.00006103516
131066.00006103516
131042.0004272461
131117.99926757812
131117.99926757812
131141.9989013672
131169.9984741211
131245.99731445312
131117.99926757812
131089.99969482422
131169.9984741211
131141.9989013672
131042.0004272461
131221.99768066406
131169.9984741211
131169.9984741211
131169.9984741211
131221.99768066406
131089.99969482422
131066.00006103516
131193.99810791016
131089.99969482422
130962.00164794922
131066.00006103516
131117.99926757812
131193.99810791016
131089.99969482422
131141.9989013672
131042.0004272461
131042.0004272461
131245.99731445312
131141.9989013672
131042.0004272461
131193.99810791016
131169.9984741211
131141.9989013672
131221.99768066406
131273.99688720703
131042.0004272461
131169.9984741211
131042.0004272461
131141.9989013672
131042.0004272461
131117.99926757812
131169.9984741211
131273.99688720703
131169.9984741211
131245.99731445312
131117.99926757812
131117.99926757812
131014.00085449219
131042.0004272461
131042.0004272461
131117.99926757812
131141.9989013672
131297.9965209961
131141.9989013672
131245.99731445312
131245.99731445312
131141.9989013672
131273.99688720703
131141.9989013672
131042.0004272461
131169.9984741211
131141.9989013672
131193.99810791016
131297.9965209961
131169.9984741211
131117.99926757812
131089.99969482422
131245.99731445312
131042.0004272461
131014.00085449219
131169.9984741211
131117.99926757812
131245.99731445312
131089.99969482422
131169.9984741211
131066.00006103516
131117.99926757812
131193.99810791016
131169.9984741211
130990.00122070312
131089.99969482422
131089.99969482422
131141.9989013672
131089.99969482422
131141.9989013672
131089.99969482422
131117.99926757812
131349.99572753906
131141.9989013672
131066.00006103516
131193.99810791016
131117.99926757812
131169.9984741211
131193.99810791016
131221.99768066406
131117.99926757812
131141.9989013672
131273.99688720703
131117.99926757812
131042.0004272461
131117.99926757812
131141.9989013672
131245.99731445312
131273.99688720703
131273.99688720703
131169.9984741211
131297.9965209961
131349.99572753906
131245.99731445312
131221.99768066406
131193.99810791016
131245.99731445312
131245.99731445312
131245.99731445312
131325.99609375
131193.99810791016
131221.99768066406
131297.9965209961
131193.99810791016
131066.00006103516
131193.99810791016
131193.99810791016
131273.99688720703
131245.99731445312
131221.99768066406
131193.99810791016
131193.99810791016
131349.99572753906
131273.99688720703
131117.99926757812
131297.9965209961
131297.9965209961
131349.99572753906
131245.99731445312
131221.99768066406
131169.9984741211
131221.99768066406
131373.99536132812
131221.99768066406
131117.99926757812
131221.99768066406
131193.99810791016
131193.99810791016
131169.9984741211
131193.99810791016
131117.99926757812
131169.9984741211
131221.99768066406
131117.99926757812
130962.00164794922
131117.99926757812
131117.99926757812
131066.00006103516
131089.99969482422
131089.99969482422
131014.00085449219
131141.9989013672
131273.99688720703
131117.99926757812
131066.00006103516
131089.99969482422
131169.9984741211
131117.99926757812
131169.9984741211
131089.99969482422
131066.00006103516
131066.00006103516
131193.99810791016
131066.00006103516
131014.00085449219
131141.9989013672
131089.99969482422
131245.99731445312
131169.9984741211
131325.99609375
131169.9984741211
131245.99731445312
131373.99536132812
131221.99768066406
131193.99810791016
131169.9984741211
131141.9989013672
131042.0004272461
131193.99810791016
131325.99609375
131245.99731445312
131221.99768066406
131373.99536132812
131169.9984741211
131089.99969482422
131169.9984741211
131042.0004272461
131117.99926757812
131141.9989013672
131273.99688720703
131245.99731445312
131245.99731445312
131349.99572753906
131297.9965209961
131141.9989013672
131245.99731445312
131193.99810791016
131089.99969482422
131349.99572753906
131373.99536132812
131325.99609375
131325.99609375
131401.99493408203
131273.99688720703
131169.9984741211
131221.99768066406
131221.99768066406
131117.99926757812
131193.99810791016
131273.99688720703
131245.99731445312
131169.9984741211
131325.99609375
131169.9984741211
131193.99810791016
131141.9989013672
131169.9984741211
131042.0004272461
131273.99688720703
131221.99768066406
131169.9984741211
131245.99731445312
131349.99572753906
131141.9989013672
131089.99969482422
131141.9989013672
131141.9989013672
131014.00085449219
131221.99768066406
131221.99768066406
131117.99926757812
131169.9984741211
131297.9965209961
131141.9989013672
131066.00006103516
131089.99969482422
131117.99926757812
131221.99768066406
131193.99810791016
131245.99731445312
131169.9984741211
131169.9984741211
131297.9965209961
131117.99926757812
131066.00006103516
131066.00006103516
131117.99926757812
131014.00085449219
131193.99810791016
131169.9984741211
131169.9984741211
131169.9984741211
131273.99688720703
131042.0004272461
131042.0004272461
131169.9984741211
131117.99926757812
131014.00085449219
131141.9989013672
131245.99731445312
131169.9984741211
131169.9984741211
131349.99572753906
131193.99810791016
131117.99926757812
131169.9984741211
131066.00006103516
130990.00122070312
131169.9984741211
131117.99926757812
131221.99768066406
131141.9989013672
131117.99926757812
130990.00122070312
131042.0004272461
131089.99969482422
131089.99969482422
130910.00244140625
131117.99926757812
131193.99810791016
131014.00085449219
131117.99926757812
131193.99810791016
131089.99969482422
131042.0004272461
131141.9989013672
131042.0004272461
130834.00360107422
131089.99969482422
131066.00006103516
131042.0004272461
131066.00006103516
131169.9984741211
130962.00164794922
130962.00164794922
131042.0004272461
131014.00085449219
130910.00244140625
131141.9989013672
131117.99926757812
131089.99969482422
131066.00006103516
131169.9984741211
131089.99969482422
131042.0004272461
131089.99969482422
131066.00006103516
130938.00201416016
131117.99926757812
131066.00006103516
131089.99969482422
131141.9989013672
131297.9965209961
131117.99926757812
131066.00006103516
131193.99810791016
131169.9984741211
131066.00006103516
131221.99768066406
131141.9989013672
131141.9989013672
131089.99969482422
131297.9965209961
130990.00122070312
130962.00164794922
131141.9989013672
131066.00006103516
130910.00244140625
131117.99926757812
131042.0004272461
131117.99926757812
131117.99926757812
131193.99810791016
131089.99969482422
131066.00006103516
131042.0004272461
131089.99969482422
130938.00201416016
131066.00006103516
131141.9989013672
131141.9989013672
131141.9989013672
130990.00122070312
131042.0004272461
131066.00006103516
131014.00085449219
131066.00006103516
130962.00164794922
131042.0004272461
131089.99969482422
130886.00280761719
131141.9989013672
131066.00006103516
131169.9984741211
131042.0004272461
131042.0004272461
131089.99969482422
130990.00122070312
130990.00122070312
130938.00201416016
130886.00280761719
131042.0004272461
130990.00122070312
131042.0004272461
130910.00244140625
131014.00085449219
130990.00122070312
130962.00164794922
131042.0004272461
131042.0004272461
130886.00280761719
131014.00085449219
130990.00122070312
130990.00122070312
130990.00122070312
131014.00085449219
130990.00122070312
130938.00201416016
130990.00122070312
131089.99969482422
130962.00164794922
131014.00085449219
131141.9989013672
131066.00006103516
131042.0004272461
131042.0004272461
131066.00006103516
130962.00164794922
131042.0004272461
131117.99926757812
131221.99768066406
131169.9984741211
131297.9965209961
131089.99969482422
131089.99969482422
131325.99609375
131193.99810791016
131193.99810791016
131141.9989013672
131193.99810791016
131245.99731445312
131221.99768066406
131297.9965209961
131245.99731445312
131273.99688720703
131297.9965209961
131193.99810791016
131169.9984741211
131325.99609375
131221.99768066406
131221.99768066406
131089.99969482422
131169.9984741211
131193.99810791016
131193.99810791016
131297.9965209961
131117.99926757812
131245.99731445312
131169.9984741211
131141.9989013672
131141.9989013672
131089.99969482422
131245.99731445312
131117.99926757812
131042.0004272461
131373.99536132812
131169.9984741211
131221.99768066406
131221.99768066406
131141.9989013672
131169.9984741211
131117.99926757812
131221.99768066406
131117.99926757812
131089.99969482422
131325.99609375
131193.99810791016
131221.99768066406
131245.99731445312
131193.99810791016
131169.9984741211
131117.99926757812
131245.99731445312
131089.99969482422
131089.99969482422
131245.99731445312
131193.99810791016
131273.99688720703
131245.99731445312
131141.9989013672
131245.99731445312
131169.9984741211
131401.99493408203
131169.9984741211
131221.99768066406
131401.99493408203
131169.9984741211
131066.00006103516
131245.99731445312
131169.9984741211
131169.9984741211
131193.99810791016
131245.99731445312
131141.9989013672
131089.99969482422
131117.99926757812
131117.99926757812
131042.0004272461
131245.99731445312
131245.99731445312
131221.99768066406
131169.9984741211
131349.99572753906
131117.99926757812
131169.9984741211
131169.9984741211
131169.9984741211
131042.0004272461
131221.99768066406
131245.99731445312
131221.99768066406
131193.99810791016
131325.99609375
131141.9989013672
131117.99926757812
131141.9989013672
131141.9989013672
130962.00164794922
131221.99768066406
131141.9989013672
131169.9984741211
131169.9984741211
131373.99536132812
131117.99926757812
131117.99926757812
131089.99969482422
131089.99969482422
130938.00201416016
131089.99969482422
131141.9989013672
131089.99969482422
131141.9989013672
131297.9965209961
131089.99969482422
131066.00006103516
131066.00006103516
131117.99926757812
130910.00244140625
131066.00006103516
131089.99969482422
131089.99969482422
131089.99969482422
131193.99810791016
131014.00085449219
131089.99969482422
131042.0004272461
131042.0004272461
130910.00244140625
131089.99969482422
131117.99926757812
131169.9984741211
131117.99926757812
131297.9965209961
131014.00085449219
131089.99969482422
131042.0004272461
131117.99926757812
131042.0004272461
131141.9989013672
131193.99810791016
131221.99768066406
131273.99688720703
131245.99731445312
131141.9989013672
131117.99926757812
131066.00006103516
131089.99969482422
131066.00006103516
131141.9989013672
131117.99926757812
131141.9989013672
131193.99810791016
131117.99926757812
131042.0004272461
131042.0004272461
131042.0004272461
131066.00006103516
130910.00244140625
131089.99969482422
131066.00006103516
131042.0004272461
131117.99926757812
131221.99768066406
131117.99926757812
131089.99969482422
131221.99768066406
131042.0004272461
130858.00323486328
131066.00006103516
131193.99810791016
131117.99926757812
131089.99969482422
131221.99768066406
131117.99926757812
130990.00122070312
131273.99688720703
131141.9989013672
130962.00164794922
131089.99969482422
131042.0004272461
131141.9989013672
131169.9984741211
131245.99731445312
131193.99810791016
131066.00006103516
131325.99609375
131117.99926757812
131273.99688720703
131325.99609375
131141.9989013672
131169.9984741211
131042.0004272461
131169.9984741211
131117.99926757812
131169.9984741211
131245.99731445312
131089.99969482422
131117.99926757812
131221.99768066406
131141.9989013672
131141.9989013672
131089.99969482422
131089.99969482422
131066.00006103516
131193.99810791016
131169.9984741211
131066.00006103516
131117.99926757812
131117.99926757812
131042.0004272461
131014.00085449219
130910.00244140625
130910.00244140625
130990.00122070312
130730.00518798828
131042.0004272461
130938.00201416016
131014.00085449219
130806.00402832031
130834.00360107422
130962.00164794922
130806.00402832031
130938.00201416016
130858.00323486328
130806.00402832031
130886.00280761719
130806.00402832031
130782.00439453125
130886.00280761719
130886.00280761719
130626.00677490234
130886.00280761719
130910.00244140625
130806.00402832031
130782.00439453125
130806.00402832031
130758.00476074219
130730.00518798828
130782.00439453125
130886.00280761719
130654.00634765625
130782.00439453125
130730.00518798828
130626.00677490234
130678.00598144531
130678.00598144531
130654.00634765625
130626.00677490234
130678.00598144531
130654.00634765625
130730.00518798828
130730.00518798828
130706.00555419922
130602.00714111328
130730.00518798828
130730.00518798828
130706.00555419922
130706.00555419922
130758.00476074219
130706.00555419922
130706.00555419922
130782.00439453125
130706.00555419922
130758.00476074219
130758.00476074219
130806.00402832031
130758.00476074219
130806.00402832031
130758.00476074219
130886.00280761719
130654.00634765625
130834.00360107422
130758.00476074219
130858.00323486328
130858.00323486328
130886.00280761719
130806.00402832031
130886.00280761719
130834.00360107422
130910.00244140625
130626.00677490234
130910.00244140625
130990.00122070312
130858.00323486328
130858.00323486328
130806.00402832031
130858.00323486328
130730.00518798828
130858.00323486328
130858.00323486328
130782.00439453125
130858.00323486328
130910.00244140625
130782.00439453125
130782.00439453125
130962.00164794922
130806.00402832031
130758.00476074219
130834.00360107422
130758.00476074219
130938.00201416016
130858.00323486328
130990.00122070312
130886.00280761719
130858.00323486328
131089.99969482422
130858.00323486328
130730.00518798828
130938.00201416016
130910.00244140625
130990.00122070312
131042.0004272461
131089.99969482422
130990.00122070312
130962.00164794922
131066.00006103516
130962.00164794922
130806.00402832031
131066.00006103516
131014.00085449219
131066.00006103516
131014.00085449219
131042.0004272461
130962.00164794922
131042.0004272461
131169.9984741211
130886.00280761719
130886.00280761719
131066.00006103516
131042.0004272461
131117.99926757812
131042.0004272461
131089.99969482422
130938.00201416016
130962.00164794922
131089.99969482422
130886.00280761719
130858.00323486328
130938.00201416016
130990.00122070312
131014.00085449219
130910.00244140625
131014.00085449219
130962.00164794922
130886.00280761719
131066.00006103516
130938.00201416016
130834.00360107422
130990.00122070312
131042.0004272461
131066.00006103516
130990.00122070312
131066.00006103516
131042.0004272461
131089.99969482422
131193.99810791016
130962.00164794922
130962.00164794922
131089.99969482422
131066.00006103516
131117.99926757812
131141.9989013672
131221.99768066406
131014.00085449219
131066.00006103516
131169.9984741211
131117.99926757812
130962.00164794922
131089.99969482422
130990.00122070312
131169.9984741211
131169.9984741211
131089.99969482422
131066.00006103516
131042.0004272461
131221.99768066406
131117.99926757812
130910.00244140625
131089.99969482422
131042.0004272461
131089.99969482422
131066.00006103516
131193.99810791016
131066.00006103516
131042.0004272461
131245.99731445312
131117.99926757812
130938.00201416016
131089.99969482422
131117.99926757812
131169.9984741211
131193.99810791016
131169.9984741211
131117.99926757812
131169.9984741211
131297.9965209961
131089.99969482422
130962.00164794922
131193.99810791016
131117.99926757812
131221.99768066406
131297.9965209961
131245.99731445312
131221.99768066406
131193.99810791016
131245.99731445312
131089.99969482422
131089.99969482422
131141.9989013672
131193.99810791016
131245.99731445312
131193.99810791016
131273.99688720703
131169.9984741211
131245.99731445312
131349.99572753906
131089.99969482422
131066.00006103516
131141.9989013672
131169.9984741211
131273.99688720703
131193.99810791016
131245.99731445312
131169.9984741211
131245.99731445312
131373.99536132812
131169.9984741211
131169.9984741211
131221.99768066406
131141.9989013672
131221.99768066406
131117.99926757812
131221.99768066406
131141.9989013672
131089.99969482422
131273.99688720703
131141.9989013672
131117.99926757812
131221.99768066406
131169.9984741211
131245.99731445312
131193.99810791016
131141.9989013672
131193.99810791016
131221.99768066406
131325.99609375
131117.99926757812
131117.99926757812
131245.99731445312
131221.99768066406
131297.9965209961
131273.99688720703
131297.9965209961
131273.99688720703
131325.99609375
131505.99334716797
131193.99810791016
131117.99926757812
131297.9965209961
131297.9965209961
131221.99768066406
131349.99572753906
131401.99493408203
131273.99688720703
131297.9965209961
131401.99493408203
131193.99810791016
131273.99688720703
131273.99688720703
131273.99688720703
131117.99926757812
131297.9965209961
