17.0 0.0 4267.0 637450.0 4223.0 1873115.0 4070.0 1442765.0 4057.0 2062925.0 4208.0 -561260.0 4384.0 2229555.0 4201.0 -186390.0 0.0 18050.0 4.0 0.0 4.0 36100.0 4.0 36100.0 4.0 36100.0 4.0 18050.0 4.0 36100.0 4.0 4.0 4.0 1647.0 1661.0 0.0 
18.0 0.0 4269.0 706800.0 4223.0 1914820.0 4078.0 1410370.0 4057.0 2109190.0 4211.0 -524305.0 4381.0 2247985.0 4204.0 -135470.0 0.0 18050.0 4.0 0.0 4.0 36100.0 4.0 36100.0 4.0 36100.0 4.0 18050.0 4.0 36100.0 4.0 4.0 4.0 1646.0 1662.0 0.0 
19.0 0.0 4276.0 771590.0 4229.0 1951870.0 4084.0 1414930.0 4058.0 2123060.0 4217.0 -464075.0 4386.0 2340610.0 4217.0 -47595.0 0.0 18050.0 4.0 0.0 4.0 36100.0 4.0 36100.0 4.0 36100.0 4.0 18050.0 4.0 36100.0 4.0 4.0 4.0 1647.0 1661.0 0.0 
20.0 0.0 4271.0 688370.0 4227.0 1914820.0 4077.0 1419585.0 4052.0 2016660.0 4208.0 -501125.0 4385.0 2271165.0 4211.0 -93860.0 0.0 18050.0 4.0 0.0 4.0 36100.0 4.0 36100.0 4.0 36100.0 4.0 18050.0 4.0 36100.0 4.0 4.0 4.0 1645.0 1660.0 0.0 
21.0 0.0 4265.0 679060.0 4228.0 1905510.0 4073.0 1401060.0 4049.0 1831505.0 4195.0 -547390.0 4381.0 2169325.0 4197.0 -177175.0 0.0 18050.0 4.0 0.0 4.0 36100.0 4.0 36100.0 4.0 36100.0 4.0 18050.0 4.0 36100.0 4.0 4.0 4.0 1647.0 1661.0 0.0 
22.0 0.0 4265.0 743850.0 4229.0 1900950.0 4079.0 1405715.0 4054.0 1771370.0 4196.0 -510340.0 4381.0 2211030.0 4199.0 -186390.0 0.0 18050.0 4.0 0.0 4.0 36100.0 4.0 36100.0 4.0 36100.0 4.0 18050.0 4.0 36100.0 4.0 4.0 4.0 1645.0 1661.0 0.0 
23.0 0.0 4267.0 683715.0 4229.0 1822195.0 4080.0 1405715.0 4054.0 1854590.0 4205.0 -501125.0 4382.0 2238770.0 4201.0 -181735.0 0.0 18050.0 4.0 0.0 4.0 36100.0 4.0 36100.0 4.0 36100.0 4.0 18050.0 4.0 36100.0 4.0 4.0 4.0 1645.0 1661.0 0.0 
24.0 0.0 4266.0 632795.0 4226.0 1803765.0 4075.0 1391845.0 4052.0 1914820.0 4207.0 -547390.0 4381.0 2201720.0 4198.0 -223440.0 0.0 18050.0 4.0 0.0 4.0 36100.0 4.0 36100.0 4.0 36100.0 4.0 18050.0 4.0 36100.0 4.0 4.0 4.0 1645.0 1661.0 0.0 
25.0 0.0 4268.0 716110.0 4230.0 1924035.0 4076.0 1373320.0 4055.0 1905510.0 4206.0 -501125.0 4384.0 2238770.0 4204.0 -191045.0 0.0 18050.0 4.0 0.0 4.0 36100.0 4.0 36100.0 4.0 36100.0 4.0 18050.0 4.0 36100.0 4.0 4.0 4.0 1645.0 1661.0 0.0 
26.0 0.0 4273.0 799425.0 4233.0 1998135.0 4087.0 1382535.0 4056.0 1956430.0 4206.0 -440990.0 4388.0 2308215.0 4210.0 -158650.0 0.0 18050.0 4.0 0.0 4.0 36100.0 4.0 36100.0 4.0 36100.0 4.0 18050.0 4.0 36100.0 4.0 4.0 4.0 1645.0 1662.0 0.0 
27.0 0.0 4271.0 748505.0 4231.0 1933345.0 4090.0 1396405.0 4059.0 2067485.0 4208.0 -519650.0 4386.0 2261950.0 4204.0 -246525.0 0.0 18050.0 4.0 0.0 4.0 36100.0 4.0 36100.0 4.0 36100.0 4.0 18050.0 4.0 36100.0 4.0 4.0 4.0 1644.0 1662.0 0.0 
28.0 0.0 4263.0 614270.0 4227.0 1785240.0 4079.0 1391845.0 4067.0 2081450.0 4207.0 -616835.0 4378.0 2146240.0 4191.0 -390070.0 0.0 18050.0 4.0 0.0 4.0 36100.0 4.0 36100.0 4.0 36100.0 4.0 18050.0 4.0 36100.0 4.0 4.0 4.0 1645.0 1662.0 0.0 
29.0 0.0 4262.0 535610.0 4228.0 1725010.0 4074.0 1377975.0 4064.0 2002695.0 4197.0 -635360.0 4371.0 2132370.0 4186.0 -445550.0 0.0 18050.0 4.0 0.0 4.0 36100.0 4.0 36100.0 4.0 36100.0 4.0 18050.0 4.0 36100.0 4.0 4.0 4.0 1644.0 1663.0 0.0 
30.0 0.0 4270.0 586530.0 4233.0 1808325.0 4079.0 1391845.0 4055.0 1905510.0 4187.0 -649230.0 4370.0 2238770.0 4190.0 -394630.0 0.0 18050.0 4.0 0.0 4.0 36100.0 4.0 36100.0 4.0 36100.0 4.0 18050.0 4.0 36100.0 4.0 4.0 4.0 1645.0 1663.0 0.0 
31.0 0.0 4271.0 623485.0 4234.0 1868555.0 4081.0 1387190.0 4055.0 1822195.0 4186.0 -700150.0 4373.0 2303560.0 4191.0 -362235.0 0.0 18050.0 4.0 0.0 4.0 36100.0 4.0 36100.0 4.0 36100.0 4.0 18050.0 4.0 36100.0 4.0 4.0 4.0 1644.0 1663.0 0.0 
32.0 0.0 4270.0 581875.0 4233.0 1831505.0 4075.0 1345485.0 4056.0 1766715.0 4188.0 -723235.0 4375.0 2289690.0 4193.0 -390070.0 0.0 18050.0 4.0 0.0 4.0 36100.0 4.0 36100.0 4.0 36100.0 4.0 18050.0 4.0 36100.0 4.0 4.0 4.0 1646.0 1664.0 0.0 
33.0 0.0 4272.0 568005.0 4235.0 1808325.0 4074.0 1336270.0 4055.0 1771370.0 4188.0 -676970.0 4377.0 2317430.0 4199.0 -473385.0 0.0 18050.0 4.0 0.0 4.0 36100.0 4.0 36100.0 4.0 36100.0 4.0 18050.0 4.0 36100.0 4.0 4.0 4.0 1644.0 1663.0 0.0 
34.0 0.0 4272.0 605055.0 4235.0 1863900.0 4078.0 1327055.0 4053.0 1882425.0 4192.0 -649230.0 4376.0 2359135.0 4202.0 -538175.0 0.0 18050.0 4.0 0.0 4.0 36100.0 4.0 36100.0 4.0 36100.0 4.0 18050.0 4.0 36100.0 4.0 4.0 4.0 1645.0 1664.0 0.0 
35.0 0.0 4268.0 655975.0 4229.0 1928690.0 4086.0 1327055.0 4053.0 1988825.0 4202.0 -612180.0 4374.0 2335955.0 4204.0 -584440.0 0.0 18050.0 4.0 0.0 4.0 36100.0 4.0 36100.0 4.0 36100.0 4.0 18050.0 4.0 36100.0 4.0 4.0 4.0 1646.0 1664.0 0.0 
36.0 0.0 4266.0 660535.0 4233.0 1933345.0 4092.0 1368665.0 4054.0 1974955.0 4207.0 -556700.0 4374.0 2335955.0 4207.0 -649230.0 0.0 18050.0 4.0 0.0 4.0 36100.0 4.0 36100.0 4.0 36100.0 4.0 18050.0 4.0 36100.0 4.0 4.0 4.0 1645.0 1665.0 0.0 
37.0 0.0 4265.0 655975.0 4235.0 1914820.0 4088.0 1387190.0 4055.0 1924035.0 4203.0 -579785.0 4374.0 2363695.0 4203.0 -718675.0 0.0 18050.0 4.0 0.0 4.0 36100.0 4.0 36100.0 4.0 36100.0 4.0 18050.0 4.0 36100.0 4.0 4.0 4.0 1646.0 1665.0 0.0 
38.0 0.0 4269.0 642010.0 4230.0 1919475.0 4082.0 1350140.0 4054.0 1914820.0 4193.0 -658445.0 4373.0 2345265.0 4197.0 -755630.0 0.0 18050.0 4.0 0.0 4.0 36100.0 4.0 36100.0 4.0 36100.0 4.0 18050.0 4.0 36100.0 4.0 4.0 4.0 1645.0 1667.0 0.0 
39.0 0.0 4271.0 605055.0 4228.0 1942560.0 4078.0 1354795.0 4055.0 1947215.0 4194.0 -653885.0 4373.0 2354480.0 4201.0 -746415.0 0.0 18050.0 4.0 0.0 4.0 36100.0 4.0 36100.0 4.0 36100.0 4.0 18050.0 4.0 36100.0 4.0 4.0 4.0 1645.0 1668.0 0.0 
40.0 0.0 4272.0 655975.0 4233.0 1988825.0 4081.0 1401060.0 4058.0 2030530.0 4210.0 -565915.0 4381.0 2479405.0 4212.0 -667755.0 0.0 18050.0 4.0 0.0 4.0 36100.0 4.0 36100.0 4.0 36100.0 4.0 18050.0 4.0 36100.0 4.0 4.0 4.0 1645.0 1668.0 0.0 
41.0 0.0 4271.0 739195.0 4233.0 2021220.0 4087.0 1414930.0 4067.0 2086010.0 4222.0 -514995.0 4385.0 2539635.0 4220.0 -630705.0 0.0 18050.0 4.0 0.0 4.0 36100.0 4.0 36100.0 4.0 36100.0 4.0 18050.0 4.0 36100.0 4.0 4.0 4.0 1646.0 1668.0 0.0 
42.0 0.0 4269.0 679060.0 4231.0 1998135.0 4087.0 1419585.0 4072.0 2067485.0 4217.0 -547390.0 4384.0 2442450.0 4218.0 -700150.0 0.0 18050.0 4.0 0.0 4.0 36100.0 4.0 36100.0 4.0 36100.0 4.0 18050.0 4.0 36100.0 4.0 4.0 4.0 1645.0 1669.0 0.0 
43.0 0.0 4267.0 595745.0 4230.0 1951870.0 4083.0 1424240.0 4070.0 2044400.0 4212.0 -565915.0 4378.0 2377660.0 4209.0 -783465.0 0.0 18050.0 4.0 0.0 4.0 36100.0 4.0 36100.0 4.0 36100.0 4.0 18050.0 4.0 36100.0 4.0 4.0 4.0 1645.0 1668.0 0.0 
44.0 0.0 4268.0 669845.0 4232.0 1965740.0 4086.0 1442765.0 4066.0 2058270.0 4213.0 -556700.0 4376.0 2423925.0 4205.0 -769595.0 0.0 18050.0 4.0 0.0 4.0 36100.0 4.0 36100.0 4.0 36100.0 4.0 18050.0 4.0 36100.0 4.0 4.0 4.0 1645.0 1669.0 0.0 
45.0 0.0 4270.0 790115.0 4235.0 2007350.0 4089.0 1447325.0 4066.0 2076795.0 4212.0 -570570.0 4372.0 2423925.0 4206.0 -760285.0 0.0 18050.0 4.0 0.0 4.0 36100.0 4.0 36100.0 4.0 36100.0 4.0 18050.0 4.0 36100.0 4.0 4.0 4.0 1645.0 1669.0 0.0 
46.0 0.0 4271.0 817950.0 4232.0 2025875.0 4084.0 1410370.0 4072.0 2072140.0 4208.0 -626050.0 4364.0 2377660.0 4201.0 -801990.0 0.0 18050.0 4.0 0.0 4.0 36100.0 4.0 36100.0 4.0 36100.0 4.0 18050.0 4.0 36100.0 4.0 4.0 4.0 1645.0 1669.0 0.0 
47.0 0.0 4271.0 841035.0 4230.0 2016660.0 4083.0 1405715.0 4075.0 2081450.0 4209.0 -667755.0 4361.0 2354480.0 4190.0 -843600.0 0.0 18050.0 4.0 0.0 4.0 36100.0 4.0 36100.0 4.0 36100.0 4.0 18050.0 4.0 36100.0 4.0 4.0 4.0 1645.0 1669.0 0.0 
48.0 0.0 4269.0 929005.0 4234.0 2035090.0 4090.0 1438110.0 4066.0 2081450.0 4212.0 -695495.0 4359.0 2331300.0 4180.0 -889865.0 0.0 18050.0 4.0 0.0 4.0 36100.0 4.0 36100.0 4.0 36100.0 4.0 18050.0 4.0 36100.0 4.0 4.0 4.0 1644.0 1670.0 0.0 
49.0 0.0 4268.0 1012320.0 4236.0 2113845.0 4093.0 1456635.0 4055.0 2025875.0 4207.0 -718675.0 4353.0 2298905.0 4175.0 -936130.0 0.0 18050.0 4.0 0.0 4.0 36100.0 4.0 36100.0 4.0 36100.0 4.0 18050.0 4.0 36100.0 4.0 4.0 4.0 1646.0 1669.0 0.0 
50.0 0.0 4268.0 1030845.0 4229.0 2155455.0 4091.0 1470505.0 4054.0 1974955.0 4202.0 -737200.0 4351.0 2280475.0 4169.0 -940785.0 0.0 18050.0 4.0 0.0 4.0 36100.0 4.0 36100.0 4.0 36100.0 4.0 18050.0 4.0 36100.0 4.0 4.0 4.0 1644.0 1670.0 0.0 
51.0 0.0 4272.0 1058585.0 4230.0 2160110.0 4091.0 1498245.0 4060.0 2053615.0 4205.0 -741760.0 4358.0 2326740.0 4170.0 -899175.0 0.0 18050.0 4.0 0.0 4.0 36100.0 4.0 36100.0 4.0 36100.0 4.0 18050.0 4.0 36100.0 4.0 4.0 4.0 1645.0 1670.0 0.0 
52.0 0.0 4278.0 1137245.0 4235.0 2215590.0 4100.0 1507555.0 4068.0 2155455.0 4209.0 -695495.0 4365.0 2423925.0 4183.0 -848255.0 0.0 18050.0 4.0 0.0 4.0 36100.0 4.0 36100.0 4.0 36100.0 4.0 18050.0 4.0 36100.0 4.0 4.0 4.0 1644.0 1669.0 0.0 
53.0 0.0 4283.0 1202035.0 4236.0 2285035.0 4109.0 1470505.0 4063.0 2067485.0 4208.0 -630705.0 4365.0 2488715.0 4193.0 -801990.0 0.0 18050.0 4.0 0.0 4.0 36100.0 4.0 36100.0 4.0 36100.0 4.0 18050.0 4.0 36100.0 4.0 4.0 4.0 1645.0 1671.0 0.0 
54.0 0.0 4278.0 1188165.0 4230.0 2271165.0 4108.0 1456635.0 4051.0 1928690.0 4202.0 -635360.0 4360.0 2428485.0 4188.0 -801990.0 0.0 18050.0 4.0 0.0 4.0 36100.0 4.0 36100.0 4.0 36100.0 4.0 18050.0 4.0 36100.0 4.0 4.0 4.0 1645.0 1669.0 0.0 
55.0 0.0 4274.0 1128030.0 4230.0 2215590.0 4099.0 1465850.0 4047.0 1910165.0 4196.0 -709365.0 4359.0 2331300.0 4182.0 -866780.0 0.0 18050.0 4.0 0.0 4.0 36100.0 4.0 36100.0 4.0 36100.0 4.0 18050.0 4.0 36100.0 4.0 4.0 4.0 1644.0 1671.0 0.0 
56.0 0.0 4274.0 1090980.0 4225.0 2155455.0 4092.0 1442765.0 4045.0 1854590.0 4187.0 -774155.0 4358.0 2261950.0 4175.0 -959310.0 0.0 18050.0 4.0 0.0 4.0 36100.0 4.0 36100.0 4.0 36100.0 4.0 18050.0 4.0 36100.0 4.0 4.0 4.0 1644.0 1670.0 0.0 
57.0 0.0 4275.0 1021535.0 4223.0 2076795.0 4093.0 1428800.0 4048.0 1762060.0 4182.0 -788025.0 4355.0 2206375.0 4166.0 -1019445.0 0.0 18050.0 4.0 0.0 4.0 36100.0 4.0 36100.0 4.0 36100.0 4.0 18050.0 4.0 36100.0 4.0 4.0 4.0 1643.0 1670.0 0.0 
58.0 0.0 4275.0 966055.0 4226.0 2044400.0 4099.0 1484375.0 4054.0 1822195.0 4186.0 -769595.0 4357.0 2220245.0 4169.0 -1028755.0 0.0 18050.0 4.0 0.0 4.0 36100.0 4.0 36100.0 4.0 36100.0 4.0 18050.0 4.0 36100.0 4.0 4.0 4.0 1644.0 1670.0 0.0 
59.0 0.0 4279.0 1035405.0 4226.0 2127715.0 4101.0 1502900.0 4057.0 1979610.0 4195.0 -741760.0 4362.0 2271165.0 4180.0 -977835.0 0.0 18050.0 4.0 0.0 4.0 36100.0 4.0 36100.0 4.0 36100.0 4.0 18050.0 4.0 36100.0 4.0 4.0 4.0 1643.0 1671.0 0.0 
60.0 0.0 4286.0 1164985.0 4224.0 2238770.0 4102.0 1456635.0 4063.0 2127715.0 4205.0 -700150.0 4361.0 2322085.0 4189.0 -899175.0 0.0 18050.0 4.0 0.0 4.0 36100.0 4.0 36100.0 4.0 36100.0 4.0 18050.0 4.0 36100.0 4.0 4.0 4.0 1643.0 1670.0 0.0 
61.0 0.0 4288.0 1215905.0 4229.0 2257295.0 4107.0 1461195.0 4072.0 2234115.0 4215.0 -621490.0 4360.0 2386875.0 4197.0 -848255.0 0.0 18050.0 4.0 0.0 4.0 36100.0 4.0 36100.0 4.0 36100.0 4.0 18050.0 4.0 36100.0 4.0 4.0 4.0 1642.0 1670.0 0.0 
62.0 0.0 4282.0 1141900.0 4232.0 2211030.0 4110.0 1465850.0 4068.0 2234115.0 4222.0 -616835.0 4365.0 2363695.0 4198.0 -889865.0 0.0 18050.0 4.0 0.0 4.0 36100.0 4.0 36100.0 4.0 36100.0 4.0 18050.0 4.0 36100.0 4.0 4.0 4.0 1643.0 1670.0 0.0 
63.0 0.0 4272.0 989140.0 4224.0 2132370.0 4103.0 1451980.0 4059.0 2132370.0 4213.0 -723235.0 4358.0 2187850.0 4182.0 -1028755.0 0.0 18050.0 4.0 0.0 4.0 36100.0 4.0 36100.0 4.0 36100.0 4.0 18050.0 4.0 36100.0 4.0 4.0 4.0 1642.0 1670.0 0.0 
64.0 0.0 4265.0 827165.0 4221.0 1965740.0 4092.0 1461195.0 4060.0 2012005.0 4195.0 -834385.0 4342.0 1984265.0 4159.0 -1218470.0 44.0 18050.0 4.0 9025.0 4.0 36100.0 4.0 36100.0 4.0 36100.0 4.0 18050.0 4.0 36100.0 4.0 4.0 4.0 1642.0 1671.0 0.0 
65.0 0.0 4261.0 762375.0 4218.0 1850030.0 4086.0 1484375.0 4066.0 1933345.0 4188.0 -894520.0 4334.0 1928690.0 4148.0 -1334180.0 488.0 18050.0 4.0 9025.0 4.0 36100.0 4.0 36100.0 4.0 36100.0 4.0 18050.0 4.0 36100.0 4.0 4.0 4.0 1643.0 1669.0 0.0 
66.0 0.0 4265.0 767030.0 4217.0 1900950.0 4087.0 1502900.0 4065.0 1905510.0 4192.0 -875995.0 4344.0 2002695.0 4147.0 -1306440.0 259.0 18050.0 4.0 9025.0 4.0 36100.0 4.0 36100.0 4.0 36100.0 4.0 18050.0 4.0 36100.0 4.0 4.0 4.0 1641.0 1671.0 0.0 
67.0 0.0 4271.0 841035.0 4220.0 1988825.0 4099.0 1516770.0 4059.0 1919475.0 4194.0 -778810.0 4357.0 2113845.0 4158.0 -1236995.0 497.0 18050.0 4.0 9025.0 4.0 36100.0 4.0 36100.0 4.0 36100.0 4.0 18050.0 4.0 36100.0 4.0 4.0 4.0 1643.0 1670.0 0.0 
68.0 0.0 4273.0 919695.0 4224.0 2039745.0 4108.0 1512115.0 4053.0 1956430.0 4197.0 -695495.0 4363.0 2215590.0 4177.0 -1167550.0 477.0 18050.0 4.0 9025.0 4.0 36100.0 4.0 36100.0 4.0 36100.0 4.0 18050.0 4.0 36100.0 4.0 4.0 4.0 1642.0 1671.0 0.0 
69.0 0.0 4273.0 961400.0 4222.0 2099975.0 4106.0 1493590.0 4053.0 2025875.0 4209.0 -686280.0 4364.0 2280475.0 4189.0 -1084235.0 494.0 18050.0 4.0 9025.0 4.0 36100.0 4.0 36100.0 4.0 36100.0 4.0 18050.0 4.0 36100.0 4.0 4.0 4.0 1642.0 1672.0 0.0 
70.0 0.0 4277.0 993795.0 4226.0 2146240.0 4105.0 1484375.0 4052.0 2044400.0 4210.0 -700150.0 4367.0 2312870.0 4186.0 -1047280.0 502.0 18050.0 4.0 9025.0 4.0 36100.0 4.0 36100.0 4.0 36100.0 4.0 18050.0 4.0 36100.0 4.0 4.0 4.0 1642.0 1672.0 0.0 
71.0 0.0 4275.0 989140.0 4225.0 2113845.0 4100.0 1479720.0 4049.0 1970300.0 4198.0 -746415.0 4363.0 2266510.0 4177.0 -1130595.0 438.0 18050.0 4.0 9025.0 4.0 36100.0 4.0 36100.0 4.0 36100.0 4.0 18050.0 4.0 36100.0 4.0 4.0 4.0 1642.0 1671.0 0.0 
72.0 0.0 4270.0 919695.0 4222.0 2021220.0 4085.0 1451980.0 4050.0 1970300.0 4191.0 -815860.0 4354.0 2178635.0 4167.0 -1227780.0 447.0 18050.0 4.0 9025.0 4.0 36100.0 4.0 36100.0 4.0 36100.0 4.0 18050.0 4.0 36100.0 4.0 4.0 4.0 1642.0 1672.0 0.0 
73.0 0.0 4269.0 854905.0 4222.0 1956430.0 4079.0 1438110.0 4063.0 2058270.0 4193.0 -852910.0 4350.0 2109190.0 4157.0 -1255520.0 416.0 18050.0 4.0 9025.0 4.0 36100.0 4.0 36100.0 4.0 36100.0 4.0 18050.0 4.0 36100.0 4.0 4.0 4.0 1643.0 1673.0 0.0 
74.0 0.0 4268.0 841035.0 4227.0 1965740.0 4086.0 1451980.0 4074.0 2058270.0 4193.0 -825075.0 4351.0 2099975.0 4159.0 -1264735.0 433.0 18050.0 4.0 9025.0 4.0 36100.0 4.0 36100.0 4.0 36100.0 4.0 18050.0 4.0 36100.0 4.0 4.0 4.0 1643.0 1671.0 0.0 
75.0 0.0 4268.0 845690.0 4226.0 1974955.0 4089.0 1451980.0 4069.0 2039745.0 4196.0 -746415.0 4349.0 2146240.0 4168.0 -1250865.0 373.0 18050.0 4.0 9025.0 4.0 36100.0 4.0 36100.0 4.0 36100.0 4.0 18050.0 4.0 36100.0 4.0 4.0 4.0 1643.0 1674.0 0.0 
76.0 0.0 4274.0 919695.0 4228.0 1988825.0 4088.0 1438110.0 4063.0 2109190.0 4206.0 -690840.0 4352.0 2211030.0 4177.0 -1190730.0 239.0 18050.0 4.0 9025.0 4.0 36100.0 4.0 36100.0 4.0 36100.0 4.0 18050.0 4.0 36100.0 4.0 4.0 4.0 1645.0 1673.0 0.0 
77.0 0.0 4278.0 1035405.0 4235.0 2076795.0 4093.0 1465850.0 4059.0 2076795.0 4212.0 -649230.0 4361.0 2271165.0 4187.0 -1130595.0 417.0 18050.0 4.0 9025.0 4.0 36100.0 4.0 36100.0 4.0 36100.0 4.0 18050.0 4.0 36100.0 4.0 4.0 4.0 1644.0 1674.0 0.0 
78.0 0.0 4276.0 1072455.0 4236.0 2113845.0 4100.0 1512115.0 4058.0 1979610.0 4211.0 -626050.0 4364.0 2294345.0 4191.0 -1139810.0 433.0 18050.0 4.0 9025.0 4.0 36100.0 4.0 36100.0 4.0 36100.0 4.0 18050.0 4.0 36100.0 4.0 4.0 4.0 1645.0 1673.0 0.0 
79.0 0.0 4276.0 1021535.0 4237.0 2053615.0 4107.0 1516770.0 4068.0 2002695.0 4214.0 -612180.0 4365.0 2312870.0 4192.0 -1176860.0 373.0 18050.0 4.0 9025.0 4.0 36100.0 4.0 36100.0 4.0 36100.0 4.0 18050.0 4.0 36100.0 4.0 4.0 4.0 1645.0 1673.0 0.0 
80.0 0.0 4274.0 979925.0 4239.0 2025875.0 4107.0 1507555.0 4074.0 2072140.0 4215.0 -616835.0 4369.0 2289690.0 4193.0 -1241650.0 239.0 18050.0 4.0 9025.0 4.0 36100.0 4.0 36100.0 4.0 36100.0 4.0 18050.0 4.0 36100.0 4.0 4.0 4.0 1645.0 1674.0 0.0 
81.0 0.0 4270.0 919695.0 4242.0 2002695.0 4096.0 1493590.0 4067.0 2081450.0 4213.0 -676970.0 4367.0 2229555.0 4190.0 -1315655.0 417.0 18050.0 4.0 9025.0 4.0 36100.0 4.0 36100.0 4.0 36100.0 4.0 18050.0 4.0 36100.0 4.0 4.0 4.0 1646.0 1673.0 0.0 
82.0 0.0 4267.0 896610.0 4239.0 1974955.0 4089.0 1493590.0 4061.0 2067485.0 4212.0 -695495.0 4362.0 2211030.0 4186.0 -1324965.0 433.0 18050.0 4.0 9025.0 4.0 36100.0 4.0 36100.0 4.0 36100.0 4.0 18050.0 4.0 36100.0 4.0 4.0 4.0 1646.0 1673.0 0.0 
83.0 0.0 4269.0 905825.0 4241.0 1961085.0 4092.0 1493590.0 4064.0 2072140.0 4210.0 -649230.0 4366.0 2234115.0 4189.0 -1274045.0 373.0 18050.0 4.0 9025.0 4.0 36100.0 4.0 36100.0 4.0 36100.0 4.0 18050.0 4.0 36100.0 4.0 4.0 4.0 1645.0 1672.0 0.0 
84.0 0.0 4268.0 887300.0 4241.0 1979610.0 4091.0 1484375.0 4072.0 2095320.0 4205.0 -640015.0 4368.0 2243425.0 4189.0 -1269390.0 239.0 18050.0 4.0 9025.0 4.0 36100.0 4.0 36100.0 4.0 36100.0 4.0 18050.0 4.0 36100.0 4.0 4.0 4.0 1646.0 1672.0 0.0 
85.0 0.0 4267.0 887300.0 4244.0 1979610.0 4087.0 1447325.0 4078.0 2109190.0 4199.0 -718675.0 4365.0 2234115.0 4185.0 -1301785.0 417.0 18050.0 4.0 9025.0 4.0 36100.0 4.0 36100.0 4.0 36100.0 4.0 18050.0 4.0 36100.0 4.0 4.0 4.0 1646.0 1669.0 0.0 
86.0 0.0 4264.0 864215.0 4242.0 1965740.0 4088.0 1451980.0 4078.0 2113845.0 4201.0 -764940.0 4362.0 2178635.0 4182.0 -1362015.0 433.0 18050.0 4.0 9025.0 4.0 36100.0 4.0 36100.0 4.0 36100.0 4.0 18050.0 4.0 36100.0 4.0 4.0 4.0 1646.0 1669.0 0.0 
87.0 0.0 4263.0 776245.0 4244.0 1937905.0 4094.0 1489030.0 4074.0 2141585.0 4208.0 -723235.0 4362.0 2146240.0 4179.0 -1454545.0 373.0 18050.0 4.0 9025.0 4.0 36100.0 4.0 36100.0 4.0 36100.0 4.0 18050.0 4.0 36100.0 4.0 4.0 4.0 1648.0 1664.0 0.0 
88.0 0.0 4264.0 803985.0 4243.0 1947215.0 4097.0 1451980.0 4069.0 2132370.0 4212.0 -640015.0 4364.0 2206375.0 4182.0 -1491595.0 239.0 18050.0 4.0 9025.0 4.0 36100.0 4.0 36100.0 4.0 36100.0 4.0 18050.0 4.0 36100.0 4.0 4.0 4.0 1647.0 1662.0 0.0 
89.0 0.0 4267.0 919695.0 4243.0 2002695.0 4091.0 1405715.0 4062.0 2053615.0 4206.0 -653885.0 4364.0 2280475.0 4182.0 -1473070.0 417.0 18050.0 4.0 9025.0 4.0 36100.0 4.0 36100.0 4.0 36100.0 4.0 18050.0 4.0 36100.0 4.0 4.0 4.0 1649.0 1659.0 0.0 
90.0 0.0 4266.0 929005.0 4242.0 2030530.0 4082.0 1401060.0 4054.0 1993480.0 4196.0 -741760.0 4357.0 2257295.0 4175.0 -1500810.0 433.0 18050.0 4.0 9025.0 4.0 36100.0 4.0 36100.0 4.0 36100.0 4.0 18050.0 4.0 36100.0 4.0 4.0 4.0 1649.0 1654.0 0.0 
91.0 0.0 4267.0 896610.0 4245.0 2012005.0 4080.0 1396405.0 4050.0 1910165.0 4195.0 -709365.0 4356.0 2280475.0 4178.0 -1473070.0 373.0 18050.0 4.0 9025.0 4.0 36100.0 4.0 36100.0 4.0 36100.0 4.0 18050.0 4.0 36100.0 4.0 4.0 4.0 1651.0 1652.0 0.0 
92.0 0.0 4273.0 952090.0 4246.0 1998135.0 4086.0 1396405.0 4048.0 1840720.0 4203.0 -607525.0 4364.0 2377660.0 4197.0 -1362015.0 239.0 18050.0 4.0 9025.0 4.0 36100.0 4.0 36100.0 4.0 36100.0 4.0 18050.0 4.0 36100.0 4.0 4.0 4.0 1652.0 1648.0 0.0 
93.0 0.0 4276.0 979925.0 4246.0 2044400.0 4090.0 1456635.0 4055.0 1919475.0 4211.0 -630705.0 4367.0 2428485.0 4201.0 -1315655.0 417.0 18050.0 4.0 9025.0 4.0 36100.0 4.0 36100.0 4.0 36100.0 4.0 18050.0 4.0 36100.0 4.0 4.0 4.0 1652.0 1646.0 0.0 
94.0 0.0 4273.0 919695.0 4245.0 2058270.0 4086.0 1465850.0 4067.0 2090665.0 4211.0 -704805.0 4366.0 2428485.0 4189.0 -1403625.0 433.0 18050.0 4.0 9025.0 4.0 36100.0 4.0 36100.0 4.0 36100.0 4.0 18050.0 4.0 36100.0 4.0 4.0 4.0 1654.0 1643.0 0.0 
95.0 0.0 4267.0 878085.0 4242.0 2007350.0 4076.0 1419585.0 4070.0 2155455.0 4208.0 -723235.0 4366.0 2410055.0 4187.0 -1468415.0 373.0 18050.0 4.0 9025.0 4.0 36100.0 4.0 36100.0 4.0 36100.0 4.0 18050.0 4.0 36100.0 4.0 4.0 4.0 1655.0 1641.0 0.0 
96.0 0.0 4268.0 841035.0 4242.0 1974955.0 4074.0 1405715.0 4067.0 2090665.0 4206.0 -741760.0 4366.0 2377660.0 4191.0 -1440675.0 239.0 18050.0 4.0 9025.0 4.0 36100.0 4.0 36100.0 4.0 36100.0 4.0 18050.0 4.0 36100.0 4.0 4.0 4.0 1655.0 1640.0 0.0 
97.0 0.0 4271.0 790115.0 4239.0 1961085.0 4076.0 1424240.0 4070.0 2058270.0 4204.0 -760285.0 4363.0 2391530.0 4192.0 -1385100.0 417.0 18050.0 4.0 9025.0 4.0 36100.0 4.0 36100.0 4.0 36100.0 4.0 18050.0 4.0 36100.0 4.0 4.0 4.0 1656.0 1640.0 0.0 
98.0 0.0 4272.0 729980.0 4239.0 1900950.0 4069.0 1433455.0 4074.0 2086010.0 4205.0 -704805.0 4365.0 2474845.0 4198.0 -1329525.0 433.0 18050.0 4.0 9025.0 4.0 36100.0 4.0 36100.0 4.0 36100.0 4.0 18050.0 4.0 36100.0 4.0 4.0 4.0 1657.0 1641.0 0.0 
99.0 0.0 4273.0 734635.0 4238.0 1840720.0 4063.0 1424240.0 4074.0 2109190.0 4206.0 -612180.0 4373.0 2525765.0 4211.0 -1283260.0 373.0 18050.0 4.0 9025.0 4.0 36100.0 4.0 36100.0 4.0 36100.0 4.0 18050.0 4.0 36100.0 4.0 4.0 4.0 1658.0 1643.0 0.0 
100.0 0.0 4276.0 780900.0 4241.0 1868555.0 4066.0 1414930.0 4077.0 2136930.0 4208.0 -570570.0 4379.0 2530325.0 4218.0 -1250865.0 239.0 18050.0 4.0 9025.0 4.0 36100.0 4.0 36100.0 4.0 36100.0 4.0 18050.0 4.0 36100.0 4.0 4.0 4.0 1658.0 1644.0 0.0 
101.0 0.0 4276.0 790115.0 4238.0 1924035.0 4067.0 1419585.0 4081.0 2146240.0 4213.0 -565915.0 4376.0 2525765.0 4219.0 -1246305.0 417.0 18050.0 4.0 9025.0 4.0 36100.0 4.0 36100.0 4.0 36100.0 4.0 18050.0 4.0 36100.0 4.0 4.0 4.0 1658.0 1646.0 0.0 
102.0 0.0 4277.0 771590.0 4236.0 1882425.0 4065.0 1401060.0 4076.0 2118405.0 4214.0 -589095.0 4375.0 2525765.0 4216.0 -1246305.0 433.0 18050.0 4.0 9025.0 4.0 36100.0 4.0 36100.0 4.0 36100.0 4.0 18050.0 4.0 36100.0 4.0 4.0 4.0 1658.0 1647.0 0.0 
103.0 0.0 4276.0 734635.0 4235.0 1812980.0 4066.0 1382535.0 4070.0 2090665.0 4210.0 -607525.0 4374.0 2507240.0 4210.0 -1292570.0 373.0 18050.0 4.0 9025.0 4.0 36100.0 4.0 36100.0 4.0 36100.0 4.0 18050.0 4.0 36100.0 4.0 4.0 4.0 1658.0 1650.0 0.0 
104.0 0.0 4274.0 739195.0 4237.0 1845375.0 4068.0 1391845.0 4070.0 2109190.0 4211.0 -598310.0 4367.0 2493370.0 4208.0 -1320310.0 239.0 18050.0 4.0 9025.0 4.0 36100.0 4.0 36100.0 4.0 36100.0 4.0 18050.0 4.0 36100.0 4.0 4.0 4.0 1658.0 1651.0 0.0 
105.0 0.0 4274.0 822510.0 4234.0 1919475.0 4071.0 1410370.0 4071.0 2118405.0 4217.0 -575130.0 4368.0 2507240.0 4215.0 -1283260.0 417.0 18050.0 4.0 9025.0 4.0 36100.0 4.0 36100.0 4.0 36100.0 4.0 18050.0 4.0 36100.0 4.0 4.0 4.0 1658.0 1655.0 0.0 
106.0 0.0 4274.0 854905.0 4234.0 1928690.0 4076.0 1419585.0 4074.0 2058270.0 4216.0 -598310.0 4377.0 2507240.0 4218.0 -1283260.0 433.0 18050.0 4.0 9025.0 4.0 36100.0 4.0 36100.0 4.0 36100.0 4.0 18050.0 4.0 36100.0 4.0 4.0 4.0 1659.0 1656.0 0.0 
107.0 0.0 4267.0 790115.0 4237.0 1891640.0 4076.0 1428800.0 4078.0 2025875.0 4210.0 -616835.0 4378.0 2451665.0 4213.0 -1348050.0 373.0 18050.0 4.0 9025.0 4.0 36100.0 4.0 36100.0 4.0 36100.0 4.0 18050.0 4.0 36100.0 4.0 4.0 4.0 1657.0 1660.0 0.0 
108.0 0.0 4262.0 734635.0 4236.0 1836160.0 4072.0 1419585.0 4078.0 2081450.0 4209.0 -593655.0 4373.0 2428485.0 4211.0 -1375885.0 239.0 18050.0 4.0 9025.0 4.0 36100.0 4.0 36100.0 4.0 36100.0 4.0 18050.0 4.0 36100.0 4.0 4.0 4.0 1658.0 1662.0 0.0 
109.0 0.0 4264.0 711455.0 4233.0 1836160.0 4074.0 1414930.0 4078.0 2104535.0 4211.0 -593655.0 4375.0 2451665.0 4215.0 -1375885.0 417.0 18050.0 4.0 9025.0 4.0 36100.0 4.0 36100.0 4.0 36100.0 4.0 18050.0 4.0 36100.0 4.0 4.0 4.0 1657.0 1662.0 0.0 
110.0 0.0 4265.0 706800.0 4235.0 1868555.0 4079.0 1447325.0 4085.0 2132370.0 4211.0 -616835.0 4377.0 2479405.0 4214.0 -1385100.0 433.0 18050.0 4.0 9025.0 4.0 36100.0 4.0 36100.0 4.0 36100.0 4.0 18050.0 4.0 36100.0 4.0 4.0 4.0 1657.0 1665.0 0.0 
111.0 0.0 4265.0 716110.0 4234.0 1817635.0 4081.0 1465850.0 4087.0 2206375.0 4214.0 -602965.0 4376.0 2507240.0 4208.0 -1394410.0 373.0 18050.0 4.0 9025.0 4.0 36100.0 4.0 36100.0 4.0 36100.0 4.0 18050.0 4.0 36100.0 4.0 4.0 4.0 1657.0 1666.0 0.0 
112.0 0.0 4267.0 697585.0 4230.0 1789800.0 4078.0 1442765.0 4080.0 2215590.0 4214.0 -593655.0 4379.0 2525765.0 4208.0 -1422150.0 239.0 18050.0 4.0 9025.0 4.0 36100.0 4.0 36100.0 4.0 36100.0 4.0 18050.0 4.0 36100.0 4.0 4.0 4.0 1657.0 1668.0 0.0 
113.0 0.0 4268.0 683715.0 4233.0 1863900.0 4078.0 1424240.0 4077.0 2155455.0 4208.0 -630705.0 4382.0 2507240.0 4209.0 -1445235.0 417.0 18050.0 4.0 9025.0 4.0 36100.0 4.0 36100.0 4.0 36100.0 4.0 18050.0 4.0 36100.0 4.0 4.0 4.0 1657.0 1669.0 0.0 
114.0 0.0 4264.0 734635.0 4234.0 1900950.0 4077.0 1405715.0 4078.0 2123060.0 4210.0 -676970.0 4378.0 2497930.0 4209.0 -1440675.0 433.0 18050.0 4.0 9025.0 4.0 36100.0 4.0 36100.0 4.0 36100.0 4.0 18050.0 4.0 36100.0 4.0 4.0 4.0 1657.0 1670.0 0.0 
115.0 0.0 4265.0 743850.0 4231.0 1868555.0 4072.0 1410370.0 4079.0 2081450.0 4210.0 -690840.0 4375.0 2488715.0 4207.0 -1468415.0 373.0 18050.0 4.0 9025.0 4.0 36100.0 4.0 36100.0 4.0 36100.0 4.0 18050.0 4.0 36100.0 4.0 4.0 4.0 1657.0 1671.0 0.0 
116.0 0.0 4265.0 688370.0 4227.0 1854590.0 4075.0 1451980.0 4079.0 2081450.0 4206.0 -663100.0 4376.0 2442450.0 4207.0 -1537860.0 239.0 18050.0 4.0 9025.0 4.0 36100.0 4.0 36100.0 4.0 36100.0 4.0 18050.0 4.0 36100.0 4.0 4.0 4.0 1656.0 1673.0 0.0 
117.0 0.0 4263.0 697585.0 4231.0 1868555.0 4079.0 1456635.0 4079.0 2178635.0 4215.0 -630705.0 4375.0 2423925.0 4210.0 -1597995.0 417.0 18050.0 4.0 9025.0 4.0 36100.0 4.0 36100.0 4.0 36100.0 4.0 18050.0 4.0 36100.0 4.0 4.0 4.0 1657.0 1675.0 0.0 
118.0 0.0 4261.0 725325.0 4230.0 1877770.0 4074.0 1419585.0 4076.0 2187850.0 4223.0 -649230.0 4372.0 2433140.0 4206.0 -1672095.0 433.0 18050.0 4.0 9025.0 4.0 36100.0 4.0 36100.0 4.0 36100.0 4.0 18050.0 4.0 36100.0 4.0 4.0 4.0 1655.0 1676.0 0.0 
119.0 0.0 4267.0 702240.0 4231.0 1859245.0 4073.0 1401060.0 4072.0 2104535.0 4210.0 -644575.0 4374.0 2465535.0 4203.0 -1672095.0 373.0 18050.0 4.0 9025.0 4.0 36100.0 4.0 36100.0 4.0 36100.0 4.0 18050.0 4.0 36100.0 4.0 4.0 4.0 1657.0 1677.0 0.0 
120.0 0.0 4268.0 702240.0 4230.0 1859245.0 4082.0 1401060.0 4071.0 2090665.0 4203.0 -612180.0 4377.0 2493370.0 4204.0 -1653570.0 239.0 18050.0 4.0 9025.0 4.0 36100.0 4.0 36100.0 4.0 36100.0 4.0 18050.0 4.0 36100.0 4.0 4.0 4.0 1655.0 1678.0 0.0 
121.0 0.0 4264.0 739195.0 4231.0 1886985.0 4078.0 1391845.0 4070.0 2021220.0 4206.0 -653885.0 4374.0 2447010.0 4197.0 -1741445.0 417.0 18050.0 4.0 9025.0 4.0 36100.0 4.0 36100.0 4.0 36100.0 4.0 18050.0 4.0 36100.0 4.0 4.0 4.0 1655.0 1680.0 0.0 
122.0 0.0 4258.0 780900.0 4230.0 1900950.0 4071.0 1391845.0 4069.0 1937905.0 4202.0 -709365.0 4371.0 2377660.0 4190.0 -1829415.0 433.0 18050.0 4.0 9025.0 4.0 36100.0 4.0 36100.0 4.0 36100.0 4.0 18050.0 4.0 36100.0 4.0 4.0 4.0 1656.0 1678.0 0.0 
123.0 0.0 4257.0 799425.0 4232.0 1886985.0 4079.0 1405715.0 4072.0 2053615.0 4209.0 -718675.0 4369.0 2359135.0 4195.0 -1810890.0 373.0 18050.0 4.0 9025.0 4.0 36100.0 4.0 36100.0 4.0 36100.0 4.0 18050.0 4.0 36100.0 4.0 4.0 4.0 1656.0 1681.0 0.0 
124.0 0.0 4261.0 813295.0 4232.0 1891640.0 4087.0 1401060.0 4079.0 2201720.0 4218.0 -737200.0 4369.0 2363695.0 4191.0 -1829415.0 239.0 18050.0 4.0 9025.0 4.0 36100.0 4.0 36100.0 4.0 36100.0 4.0 18050.0 4.0 36100.0 4.0 4.0 4.0 1656.0 1681.0 0.0 
125.0 0.0 4263.0 887300.0 4230.0 1951870.0 4088.0 1396405.0 4086.0 2178635.0 4211.0 -751070.0 4372.0 2368350.0 4179.0 -1857155.0 417.0 18050.0 4.0 9025.0 4.0 36100.0 4.0 36100.0 4.0 36100.0 4.0 18050.0 4.0 36100.0 4.0 4.0 4.0 1656.0 1682.0 0.0 
126.0 0.0 4266.0 1030845.0 4236.0 2030530.0 4097.0 1451980.0 4084.0 2160110.0 4213.0 -686280.0 4376.0 2410055.0 4183.0 -1792365.0 433.0 18050.0 4.0 9025.0 4.0 36100.0 4.0 36100.0 4.0 36100.0 4.0 18050.0 4.0 36100.0 4.0 4.0 4.0 1657.0 1680.0 0.0 
127.0 0.0 4269.0 1146555.0 4238.0 2086010.0 4106.0 1493590.0 4075.0 2178635.0 4224.0 -621490.0 4375.0 2405400.0 4190.0 -1773840.0 373.0 18050.0 4.0 9025.0 4.0 36100.0 4.0 36100.0 4.0 36100.0 4.0 18050.0 4.0 36100.0 4.0 4.0 4.0 1657.0 1679.0 0.0 
128.0 0.0 4270.0 1155770.0 4237.0 2095320.0 4107.0 1456635.0 4073.0 2164765.0 4224.0 -681625.0 4374.0 2391530.0 4182.0 -1847940.0 239.0 18050.0 4.0 18050.0 4.0 36100.0 4.0 36100.0 4.0 36100.0 4.0 18050.0 4.0 36100.0 4.0 4.0 4.0 1659.0 1678.0 0.0 
0.0 0.0 4267.0 1146555.0 4237.0 2095320.0 4103.0 1456635.0 4085.0 2187850.0 4224.0 -755630.0 4373.0 2423925.0 4179.0 -1861810.0 43.0 18050.0 4.0 9025.0 4.0 36100.0 4.0 36100.0 4.0 36100.0 4.0 18050.0 4.0 36100.0 4.0 4.0 4.0 1659.0 1678.0 0.0 
1.0 0.0 4268.0 1109505.0 4241.0 2067485.0 4095.0 1479720.0 4092.0 2164765.0 4221.0 -764940.0 4369.0 2410055.0 4179.0 -1847940.0 488.0 18050.0 4.0 9025.0 4.0 36100.0 4.0 36100.0 4.0 36100.0 4.0 18050.0 4.0 36100.0 4.0 4.0 4.0 1662.0 1678.0 0.0 
2.0 0.0 4266.0 1030845.0 4236.0 2021220.0 4086.0 1428800.0 4086.0 2076795.0 4211.0 -801990.0 4365.0 2312870.0 4170.0 -1926600.0 255.0 18050.0 4.0 9025.0 4.0 36100.0 4.0 36100.0 4.0 36100.0 4.0 18050.0 4.0 36100.0 4.0 4.0 4.0 1663.0 1676.0 0.0 
3.0 0.0 4265.0 1007665.0 4235.0 1993480.0 4091.0 1387190.0 4070.0 2044400.0 4206.0 -871340.0 4366.0 2271165.0 4165.0 -1996045.0 497.0 18050.0 4.0 9025.0 4.0 36100.0 4.0 36100.0 4.0 36100.0 4.0 18050.0 4.0 36100.0 4.0 4.0 4.0 1664.0 1678.0 0.0 
4.0 0.0 4266.0 1058585.0 4235.0 2002695.0 4101.0 1419585.0 4061.0 2109190.0 4209.0 -862125.0 4367.0 2280475.0 4170.0 -1982175.0 477.0 18050.0 4.0 9025.0 4.0 36100.0 4.0 36100.0 4.0 36100.0 4.0 18050.0 4.0 36100.0 4.0 4.0 4.0 1667.0 1677.0 0.0 
5.0 0.0 4265.0 1058585.0 4240.0 2035090.0 4100.0 1419585.0 4066.0 2187850.0 4212.0 -820515.0 4366.0 2308215.0 4172.0 -1945125.0 494.0 18050.0 4.0 9025.0 4.0 36100.0 4.0 36100.0 4.0 36100.0 4.0 18050.0 4.0 36100.0 4.0 4.0 4.0 1667.0 1678.0 0.0 
6.0 0.0 4259.0 1040060.0 4238.0 2039745.0 4095.0 1414930.0 4072.0 2247985.0 4216.0 -834385.0 4369.0 2340610.0 4171.0 -1931255.0 502.0 18050.0 4.0 9025.0 4.0 36100.0 4.0 36100.0 4.0 36100.0 4.0 18050.0 4.0 36100.0 4.0 4.0 4.0 1670.0 1677.0 0.0 
7.0 0.0 4264.0 1081765.0 4239.0 2072140.0 4094.0 1456635.0 4075.0 2261950.0 4217.0 -848255.0 4374.0 2386875.0 4177.0 -1908075.0 438.0 18050.0 4.0 9025.0 4.0 36100.0 4.0 36100.0 4.0 36100.0 4.0 18050.0 4.0 36100.0 4.0 4.0 4.0 1670.0 1678.0 0.0 
8.0 0.0 4267.0 1118720.0 4241.0 2104535.0 4096.0 1456635.0 4078.0 2247985.0 4212.0 -838945.0 4374.0 2414615.0 4181.0 -1894205.0 447.0 18050.0 4.0 9025.0 4.0 36100.0 4.0 36100.0 4.0 36100.0 4.0 18050.0 4.0 36100.0 4.0 4.0 4.0 1673.0 1678.0 0.0 
9.0 0.0 4267.0 1090980.0 4243.0 2072140.0 4093.0 1405715.0 4077.0 2247985.0 4212.0 -894520.0 4371.0 2386875.0 4179.0 -1931255.0 416.0 18050.0 4.0 9025.0 4.0 36100.0 4.0 36100.0 4.0 36100.0 4.0 18050.0 4.0 36100.0 4.0 4.0 4.0 1673.0 1677.0 0.0 
10.0 0.0 4271.0 1035405.0 4243.0 2049055.0 4091.0 1410370.0 4079.0 2280475.0 4221.0 -903735.0 4373.0 2349825.0 4183.0 -1972865.0 433.0 18050.0 4.0 9025.0 4.0 36100.0 4.0 36100.0 4.0 36100.0 4.0 18050.0 4.0 36100.0 4.0 4.0 4.0 1676.0 1677.0 0.0 
11.0 0.0 4274.0 1067800.0 4243.0 2109190.0 4097.0 1447325.0 4086.0 2331300.0 4227.0 -815860.0 4378.0 2410055.0 4186.0 -1968305.0 376.0 18050.0 4.0 9025.0 4.0 36100.0 4.0 36100.0 4.0 36100.0 4.0 18050.0 4.0 36100.0 4.0 4.0 4.0 1676.0 1676.0 0.0 
12.0 0.0 4273.0 1146555.0 4244.0 2160110.0 4105.0 1470505.0 4088.0 2345265.0 4227.0 -746415.0 4379.0 2488715.0 4188.0 -1921945.0 238.0 18050.0 4.0 9025.0 4.0 36100.0 4.0 36100.0 4.0 36100.0 4.0 18050.0 4.0 36100.0 4.0 4.0 4.0 1678.0 1676.0 0.0 
13.0 0.0 4274.0 1141900.0 4245.0 2150800.0 4106.0 1470505.0 4082.0 2312870.0 4223.0 -746415.0 4377.0 2474845.0 4192.0 -1940470.0 417.0 18050.0 4.0 9025.0 4.0 36100.0 4.0 36100.0 4.0 36100.0 4.0 18050.0 4.0 36100.0 4.0 4.0 4.0 1678.0 1675.0 0.0 
14.0 0.0 4275.0 1058585.0 4247.0 2099975.0 4103.0 1451980.0 4078.0 2229555.0 4213.0 -778810.0 4376.0 2423925.0 4192.0 -2033095.0 433.0 18050.0 4.0 9025.0 4.0 36100.0 4.0 36100.0 4.0 36100.0 4.0 18050.0 4.0 36100.0 4.0 4.0 4.0 1678.0 1677.0 0.0 
15.0 0.0 4271.0 1044715.0 4245.0 2058270.0 4099.0 1479720.0 4079.0 2123060.0 4204.0 -829730.0 4372.0 2377660.0 4184.0 -2111755.0 376.0 18050.0 4.0 9025.0 4.0 36100.0 4.0 36100.0 4.0 36100.0 4.0 18050.0 4.0 36100.0 4.0 4.0 4.0 1679.0 1675.0 0.0 
16.0 0.0 4270.0 1077110.0 4245.0 2044400.0 4100.0 1502900.0 4075.0 2076795.0 4202.0 -852910.0 4368.0 2340610.0 4176.0 -2107100.0 0.0 18050.0 4.0 9025.0 4.0 36100.0 4.0 36100.0 4.0 36100.0 4.0 18050.0 4.0 36100.0 4.0 4.0 4.0 1678.0 1676.0 0.0 
17.0 0.0 4269.0 1007665.0 4243.0 2002695.0 4095.0 1451980.0 4069.0 2127715.0 4208.0 -852910.0 4365.0 2335955.0 4174.0 -2065490.0 0.0 18050.0 4.0 9025.0 4.0 36100.0 4.0 36100.0 4.0 36100.0 4.0 18050.0 4.0 36100.0 4.0 4.0 4.0 1680.0 1676.0 0.0 
18.0 0.0 4267.0 910480.0 4244.0 1942560.0 4085.0 1391845.0 4071.0 2206375.0 4211.0 -899175.0 4363.0 2331300.0 4172.0 -2046965.0 0.0 18050.0 4.0 9025.0 4.0 36100.0 4.0 36100.0 4.0 36100.0 4.0 18050.0 4.0 36100.0 4.0 4.0 4.0 1678.0 1675.0 0.0 
19.0 0.0 4269.0 919695.0 4246.0 1993480.0 4081.0 1419585.0 4082.0 2211030.0 4212.0 -889865.0 4367.0 2359135.0 4177.0 -2033095.0 0.0 18050.0 4.0 9025.0 4.0 36100.0 4.0 36100.0 4.0 36100.0 4.0 18050.0 4.0 36100.0 4.0 4.0 4.0 1679.0 1676.0 0.0 
20.0 0.0 4273.0 924350.0 4249.0 2035090.0 4086.0 1479720.0 4086.0 2187850.0 4214.0 -788025.0 4377.0 2419270.0 4185.0 -2000700.0 0.0 18050.0 4.0 9025.0 4.0 36100.0 4.0 36100.0 4.0 36100.0 4.0 18050.0 4.0 36100.0 4.0 4.0 4.0 1678.0 1675.0 0.0 
21.0 0.0 4266.0 891955.0 4245.0 1993480.0 4085.0 1484375.0 4077.0 2187850.0 4216.0 -760285.0 4379.0 2419270.0 4187.0 -2014570.0 0.0 18050.0 4.0 9025.0 4.0 36100.0 4.0 36100.0 4.0 36100.0 4.0 18050.0 4.0 36100.0 4.0 4.0 4.0 1678.0 1674.0 0.0 
22.0 0.0 4263.0 942875.0 4245.0 2012005.0 4086.0 1456635.0 4071.0 2201720.0 4214.0 -797335.0 4374.0 2363695.0 4181.0 -2074705.0 0.0 18050.0 4.0 9025.0 4.0 36100.0 4.0 36100.0 4.0 36100.0 4.0 18050.0 4.0 36100.0 4.0 4.0 4.0 1677.0 1673.0 0.0 
23.0 0.0 4264.0 952090.0 4246.0 2053615.0 4090.0 1428800.0 4082.0 2252640.0 4214.0 -843600.0 4373.0 2294345.0 4172.0 -2185760.0 0.0 18050.0 4.0 9025.0 4.0 36100.0 4.0 36100.0 4.0 36100.0 4.0 18050.0 4.0 36100.0 4.0 4.0 4.0 1677.0 1674.0 0.0 
24.0 0.0 4263.0 919695.0 4249.0 2039745.0 4088.0 1424240.0 4092.0 2261950.0 4215.0 -875995.0 4372.0 2261950.0 4162.0 -2227465.0 0.0 18050.0 4.0 9025.0 4.0 36100.0 4.0 36100.0 4.0 36100.0 4.0 18050.0 4.0 36100.0 4.0 4.0 4.0 1674.0 1672.0 0.0 
25.0 0.0 4265.0 1067800.0 4251.0 2109190.0 4087.0 1424240.0 4075.0 2187850.0 4209.0 -852910.0 4369.0 2298905.0 4163.0 -2171890.0 0.0 18050.0 4.0 9025.0 4.0 36100.0 4.0 36100.0 4.0 36100.0 4.0 18050.0 4.0 36100.0 4.0 4.0 4.0 1673.0 1671.0 0.0 
26.0 0.0 4272.0 1271480.0 4252.0 2220245.0 4095.0 1433455.0 4062.0 2229555.0 4210.0 -815860.0 4371.0 2368350.0 4168.0 -2125625.0 0.0 18050.0 4.0 9025.0 4.0 36100.0 4.0 36100.0 4.0 36100.0 4.0 18050.0 4.0 36100.0 4.0 4.0 4.0 1671.0 1669.0 0.0 
27.0 0.0 4272.0 1322400.0 4253.0 2247985.0 4103.0 1498245.0 4074.0 2322085.0 4217.0 -848255.0 4376.0 2368350.0 4167.0 -2167235.0 0.0 18050.0 4.0 9025.0 4.0 36100.0 4.0 36100.0 4.0 36100.0 4.0 18050.0 4.0 36100.0 4.0 4.0 4.0 1671.0 1668.0 0.0 
28.0 0.0 4267.0 1331615.0 4258.0 2257295.0 4103.0 1525985.0 4083.0 2220245.0 4213.0 -894520.0 4375.0 2289690.0 4163.0 -2245990.0 0.0 18050.0 4.0 9025.0 4.0 36100.0 4.0 36100.0 4.0 36100.0 4.0 18050.0 4.0 36100.0 4.0 4.0 4.0 1670.0 1667.0 0.0 
29.0 0.0 4265.0 1345485.0 4259.0 2234115.0 4102.0 1451980.0 4076.0 2086010.0 4203.0 -889865.0 4364.0 2160110.0 4152.0 -2333865.0 0.0 18050.0 4.0 9025.0 4.0 36100.0 4.0 36100.0 4.0 36100.0 4.0 18050.0 4.0 36100.0 4.0 4.0 4.0 1670.0 1666.0 0.0 
30.0 0.0 4261.0 1322400.0 4258.0 2173980.0 4103.0 1391845.0 4072.0 2104535.0 4198.0 -908390.0 4350.0 2044400.0 4136.0 -2445015.0 0.0 18050.0 4.0 9025.0 4.0 36100.0 4.0 36100.0 4.0 36100.0 4.0 18050.0 4.0 36100.0 4.0 4.0 4.0 1668.0 1665.0 0.0 
31.0 0.0 4259.0 1317745.0 4261.0 2164765.0 4104.0 1396405.0 4074.0 2109190.0 4194.0 -987050.0 4348.0 2025875.0 4132.0 -2481970.0 0.0 18050.0 4.0 9025.0 4.0 36100.0 4.0 36100.0 4.0 36100.0 4.0 18050.0 4.0 36100.0 4.0 4.0 4.0 1668.0 1666.0 0.0 
32.0 0.0 4258.0 1331615.0 4259.0 2178635.0 4105.0 1401060.0 4066.0 1993480.0 4184.0 -1051840.0 4354.0 1998135.0 4137.0 -2412525.0 0.0 18050.0 4.0 9025.0 4.0 36100.0 4.0 36100.0 4.0 36100.0 4.0 18050.0 4.0 36100.0 4.0 4.0 4.0 1667.0 1664.0 0.0 
33.0 0.0 4259.0 1285350.0 4259.0 2136930.0 4105.0 1387190.0 4053.0 1877770.0 4173.0 -1107415.0 4352.0 1924035.0 4132.0 -2389440.0 0.0 18050.0 4.0 9025.0 4.0 36100.0 4.0 36100.0 4.0 36100.0 4.0 18050.0 4.0 36100.0 4.0 4.0 4.0 1668.0 1664.0 0.0 
34.0 0.0 4257.0 1220560.0 4260.0 2076795.0 4103.0 1391845.0 4056.0 1905510.0 4173.0 -1107415.0 4348.0 1891640.0 4127.0 -2449575.0 0.0 18050.0 4.0 9025.0 4.0 36100.0 4.0 36100.0 4.0 36100.0 4.0 18050.0 4.0 36100.0 4.0 4.0 4.0 1669.0 1662.0 0.0 
35.0 0.0 4255.0 1155770.0 4262.0 2016660.0 4095.0 1410370.0 4070.0 2007350.0 4184.0 -1070365.0 4351.0 1877770.0 4132.0 -2509805.0 0.0 18050.0 4.0 9025.0 4.0 36100.0 4.0 36100.0 4.0 36100.0 4.0 18050.0 4.0 36100.0 4.0 4.0 4.0 1668.0 1662.0 0.0 
36.0 0.0 4254.0 1128030.0 4260.0 2012005.0 4092.0 1414930.0 4073.0 2049055.0 4188.0 -1051840.0 4351.0 1868555.0 4131.0 -2546760.0 0.0 18050.0 4.0 9025.0 4.0 36100.0 4.0 36100.0 4.0 36100.0 4.0 18050.0 4.0 36100.0 4.0 4.0 4.0 1670.0 1663.0 0.0 
37.0 0.0 4264.0 1220560.0 4266.0 2113845.0 4099.0 1414930.0 4072.0 2127715.0 4191.0 -982490.0 4354.0 1970300.0 4131.0 -2495840.0 0.0 18050.0 4.0 9025.0 4.0 36100.0 4.0 36100.0 4.0 36100.0 4.0 18050.0 4.0 36100.0 4.0 4.0 4.0 1669.0 1662.0 0.0 
38.0 0.0 4273.0 1359450.0 4266.0 2206375.0 4105.0 1442765.0 4086.0 2331300.0 4212.0 -815860.0 4365.0 2118405.0 4150.0 -2366260.0 0.0 18050.0 4.0 9025.0 4.0 36100.0 4.0 36100.0 4.0 36100.0 4.0 18050.0 4.0 36100.0 4.0 4.0 4.0 1670.0 1662.0 0.0 
39.0 0.0 4274.0 1377975.0 4266.0 2206375.0 4109.0 1451980.0 4095.0 2433140.0 4229.0 -764940.0 4372.0 2183195.0 4168.0 -2315340.0 0.0 18050.0 4.0 9025.0 4.0 36100.0 4.0 36100.0 4.0 36100.0 4.0 18050.0 4.0 36100.0 4.0 4.0 4.0 1671.0 1662.0 0.0 
40.0 0.0 4269.0 1280695.0 4268.0 2169325.0 4106.0 1465850.0 4092.0 2368350.0 4222.0 -866780.0 4371.0 2155455.0 4161.0 -2375570.0 0.0 18050.0 4.0 9025.0 4.0 36100.0 4.0 36100.0 4.0 36100.0 4.0 18050.0 4.0 36100.0 4.0 4.0 4.0 1672.0 1662.0 0.0 
41.0 0.0 4266.0 1220560.0 4270.0 2132370.0 4091.0 1475160.0 4089.0 2275820.0 4206.0 -922260.0 4366.0 2099975.0 4149.0 -2403310.0 0.0 18050.0 4.0 9025.0 4.0 36100.0 4.0 36100.0 4.0 36100.0 4.0 18050.0 4.0 36100.0 4.0 4.0 4.0 1671.0 1662.0 0.0 
42.0 0.0 4261.0 1174295.0 4265.0 2049055.0 4086.0 1424240.0 4084.0 2187850.0 4196.0 -940785.0 4355.0 2012005.0 4144.0 -2440360.0 0.0 18050.0 4.0 9025.0 4.0 36100.0 4.0 36100.0 4.0 36100.0 4.0 18050.0 4.0 36100.0 4.0 4.0 4.0 1672.0 1663.0 0.0 
43.0 0.0 4255.0 1095635.0 4264.0 1979610.0 4086.0 1396405.0 4083.0 2146240.0 4196.0 -991705.0 4350.0 1947215.0 4137.0 -2509805.0 0.0 18050.0 4.0 9025.0 4.0 36100.0 4.0 36100.0 4.0 36100.0 4.0 18050.0 4.0 36100.0 4.0 4.0 4.0 1672.0 1662.0 0.0 
44.0 0.0 4255.0 1035405.0 4269.0 1993480.0 4079.0 1475160.0 4089.0 2178635.0 4199.0 -968525.0 4355.0 1951870.0 4140.0 -2519020.0 0.0 18050.0 4.0 9025.0 4.0 36100.0 4.0 36100.0 4.0 36100.0 4.0 18050.0 4.0 36100.0 4.0 4.0 4.0 1672.0 1663.0 0.0 
45.0 0.0 4257.0 1063240.0 4269.0 2039745.0 4083.0 1507555.0 4092.0 2243425.0 4206.0 -857470.0 4362.0 2021220.0 4153.0 -2445015.0 0.0 18050.0 4.0 9025.0 4.0 36100.0 4.0 36100.0 4.0 36100.0 4.0 18050.0 4.0 36100.0 4.0 4.0 4.0 1672.0 1664.0 0.0 
46.0 0.0 4258.0 1137245.0 4269.0 2039745.0 4092.0 1442765.0 4092.0 2234115.0 4214.0 -797335.0 4362.0 2062925.0 4159.0 -2384785.0 0.0 18050.0 4.0 9025.0 4.0 36100.0 4.0 36100.0 4.0 36100.0 4.0 18050.0 4.0 36100.0 4.0 4.0 4.0 1671.0 1664.0 0.0 
47.0 0.0 4257.0 1132590.0 4270.0 1993480.0 4090.0 1410370.0 4089.0 2160110.0 4214.0 -783465.0 4360.0 2007350.0 4156.0 -2431050.0 0.0 18050.0 4.0 9025.0 4.0 36100.0 4.0 36100.0 4.0 36100.0 4.0 18050.0 4.0 36100.0 4.0 4.0 4.0 1672.0 1664.0 0.0 
48.0 0.0 4259.0 1053930.0 4270.0 1956430.0 4086.0 1410370.0 4080.0 2104535.0 4206.0 -774155.0 4361.0 1924035.0 4155.0 -2491280.0 0.0 18050.0 4.0 9025.0 4.0 36100.0 4.0 36100.0 4.0 36100.0 4.0 18050.0 4.0 36100.0 4.0 4.0 4.0 1670.0 1664.0 0.0 
49.0 0.0 4257.0 1044715.0 4269.0 1993480.0 4091.0 1410370.0 4076.0 2141585.0 4207.0 -825075.0 4359.0 1937905.0 4155.0 -2491280.0 0.0 18050.0 4.0 9025.0 4.0 36100.0 4.0 36100.0 4.0 36100.0 4.0 18050.0 4.0 36100.0 4.0 4.0 4.0 1671.0 1664.0 0.0 
50.0 0.0 4253.0 1086325.0 4271.0 2030530.0 4090.0 1419585.0 4080.0 2234115.0 4215.0 -857470.0 4360.0 2012005.0 4155.0 -2472755.0 0.0 18050.0 4.0 9025.0 4.0 36100.0 4.0 36100.0 4.0 36100.0 4.0 18050.0 4.0 36100.0 4.0 4.0 4.0 1670.0 1664.0 0.0 
51.0 0.0 4255.0 1081765.0 4270.0 2016660.0 4081.0 1419585.0 4079.0 2211030.0 4211.0 -774155.0 4360.0 2044400.0 4158.0 -2500495.0 0.0 18050.0 4.0 9025.0 4.0 36100.0 4.0 36100.0 4.0 36100.0 4.0 18050.0 4.0 36100.0 4.0 4.0 4.0 1669.0 1665.0 0.0 
52.0 0.0 4264.0 1067800.0 4271.0 2012005.0 4078.0 1391845.0 4076.0 2086010.0 4202.0 -718675.0 4359.0 2039745.0 4159.0 -2495840.0 0.0 18050.0 4.0 9025.0 4.0 36100.0 4.0 36100.0 4.0 36100.0 4.0 18050.0 4.0 36100.0 4.0 4.0 4.0 1669.0 1666.0 0.0 
53.0 0.0 4264.0 1090980.0 4270.0 2012005.0 4077.0 1377975.0 4078.0 2109190.0 4206.0 -788025.0 4358.0 2030530.0 4156.0 -2468100.0 0.0 18050.0 4.0 9025.0 4.0 36100.0 4.0 36100.0 4.0 36100.0 4.0 18050.0 4.0 36100.0 4.0 4.0 4.0 1668.0 1667.0 0.0 
54.0 0.0 4265.0 1090980.0 4269.0 2012005.0 4071.0 1405715.0 4078.0 2234115.0 4215.0 -811205.0 4359.0 2090665.0 4157.0 -2435705.0 0.0 18050.0 4.0 9025.0 4.0 36100.0 4.0 36100.0 4.0 36100.0 4.0 18050.0 4.0 36100.0 4.0 4.0 4.0 1667.0 1667.0 0.0 
55.0 0.0 4273.0 1086325.0 4267.0 2030530.0 4067.0 1414930.0 4077.0 2224900.0 4212.0 -741760.0 4361.0 2164765.0 4164.0 -2407965.0 0.0 18050.0 4.0 9025.0 4.0 36100.0 4.0 36100.0 4.0 36100.0 4.0 18050.0 4.0 36100.0 4.0 4.0 4.0 1665.0 1670.0 0.0 
56.0 0.0 4273.0 1086325.0 4267.0 2007350.0 4072.0 1391845.0 4077.0 2169325.0 4206.0 -727890.0 4362.0 2104535.0 4164.0 -2412525.0 0.0 18050.0 4.0 9025.0 4.0 36100.0 4.0 36100.0 4.0 36100.0 4.0 18050.0 4.0 36100.0 4.0 4.0 4.0 1664.0 1669.0 0.0 
57.0 0.0 4264.0 1044715.0 4263.0 1988825.0 4072.0 1373320.0 4076.0 2160110.0 4201.0 -792680.0 4358.0 2090665.0 4159.0 -2445015.0 0.0 18050.0 4.0 9025.0 4.0 36100.0 4.0 36100.0 4.0 36100.0 4.0 18050.0 4.0 36100.0 4.0 4.0 4.0 1662.0 1670.0 0.0 
58.0 0.0 4265.0 1067800.0 4266.0 2072140.0 4067.0 1373320.0 4073.0 2136930.0 4197.0 -843600.0 4354.0 2340610.0 4157.0 -2417180.0 0.0 18050.0 4.0 9025.0 4.0 36100.0 4.0 36100.0 4.0 36100.0 4.0 18050.0 4.0 36100.0 4.0 4.0 4.0 1660.0 1671.0 0.0 
59.0 0.0 4269.0 1155770.0 4269.0 2155455.0 4073.0 1410370.0 4077.0 2220245.0 4208.0 -792680.0 4358.0 2599770.0 4165.0 -2347735.0 0.0 18050.0 4.0 9025.0 4.0 36100.0 4.0 36100.0 4.0 36100.0 4.0 18050.0 4.0 36100.0 4.0 4.0 4.0 1657.0 1671.0 0.0 
60.0 0.0 4263.0 1137245.0 4266.0 2109190.0 4081.0 1396405.0 4081.0 2326740.0 4217.0 -737200.0 4362.0 2618295.0 4170.0 -2338520.0 0.0 18050.0 4.0 9025.0 4.0 36100.0 4.0 36100.0 4.0 36100.0 4.0 18050.0 4.0 36100.0 4.0 4.0 4.0 1656.0 1671.0 0.0 
61.0 0.0 4259.0 1040060.0 4261.0 2012005.0 4076.0 1317745.0 4075.0 2224900.0 4202.0 -801990.0 4354.0 2539635.0 4164.0 -2417180.0 0.0 18050.0 4.0 9025.0 4.0 36100.0 4.0 36100.0 4.0 36100.0 4.0 18050.0 4.0 36100.0 4.0 4.0 4.0 1654.0 1670.0 0.0 
62.0 0.0 4259.0 1030845.0 4262.0 1970300.0 4071.0 1308530.0 4070.0 2132370.0 4192.0 -838945.0 4345.0 2530325.0 4158.0 -2454230.0 0.0 18050.0 4.0 9025.0 4.0 36100.0 4.0 36100.0 4.0 36100.0 4.0 18050.0 4.0 36100.0 4.0 4.0 4.0 1652.0 1672.0 0.0 
63.0 0.0 4256.0 1030845.0 4267.0 1961085.0 4073.0 1368665.0 4074.0 2215590.0 4208.0 -755630.0 4347.0 2521110.0 4158.0 -2431050.0 0.0 18050.0 4.0 9025.0 4.0 36100.0 4.0 36100.0 4.0 36100.0 4.0 18050.0 4.0 36100.0 4.0 4.0 4.0 1652.0 1671.0 0.0 
64.0 0.0 4253.0 998450.0 4263.0 1951870.0 4079.0 1364010.0 4079.0 2275820.0 4216.0 -746415.0 4352.0 2507240.0 4159.0 -2458885.0 44.0 18050.0 4.0 9025.0 4.0 36100.0 4.0 36100.0 4.0 36100.0 4.0 18050.0 4.0 36100.0 4.0 4.0 4.0 1649.0 1671.0 0.0 
65.0 0.0 4254.0 984485.0 4263.0 1937905.0 4079.0 1354795.0 4079.0 2206375.0 4204.0 -829730.0 4350.0 2493370.0 4161.0 -2509805.0 488.0 18050.0 4.0 9025.0 4.0 36100.0 4.0 36100.0 4.0 36100.0 4.0 18050.0 4.0 36100.0 4.0 4.0 4.0 1648.0 1670.0 0.0 
66.0 0.0 4252.0 975270.0 4263.0 1951870.0 4075.0 1387190.0 4076.0 2136930.0 4198.0 -857470.0 4343.0 2447010.0 4155.0 -2532890.0 256.0 18050.0 4.0 9025.0 4.0 36100.0 4.0 36100.0 4.0 36100.0 4.0 18050.0 4.0 36100.0 4.0 4.0 4.0 1645.0 1670.0 0.0 
67.0 0.0 4255.0 942875.0 4266.0 1937905.0 4075.0 1364010.0 4074.0 2150800.0 4205.0 -815860.0 4339.0 2460975.0 4150.0 -2523675.0 497.0 18050.0 4.0 9025.0 4.0 36100.0 4.0 36100.0 4.0 36100.0 4.0 18050.0 4.0 36100.0 4.0 4.0 4.0 1645.0 1670.0 0.0 
68.0 0.0 4258.0 919695.0 4265.0 1905510.0 4082.0 1354795.0 4074.0 2247985.0 4214.0 -760285.0 4343.0 2521110.0 4158.0 -2491280.0 477.0 18050.0 4.0 9025.0 4.0 36100.0 4.0 36100.0 4.0 36100.0 4.0 18050.0 4.0 36100.0 4.0 4.0 4.0 1641.0 1670.0 0.0 
69.0 0.0 4258.0 896610.0 4264.0 1905510.0 4081.0 1387190.0 4075.0 2275820.0 4213.0 -797335.0 4344.0 2516455.0 4163.0 -2477410.0 494.0 18050.0 4.0 9025.0 4.0 36100.0 4.0 36100.0 4.0 36100.0 4.0 18050.0 4.0 36100.0 4.0 4.0 4.0 1641.0 1670.0 0.0 
70.0 0.0 4254.0 896610.0 4263.0 1928690.0 4074.0 1396405.0 4072.0 2164765.0 4199.0 -885305.0 4338.0 2437795.0 4153.0 -2593025.0 502.0 18050.0 4.0 9025.0 4.0 36100.0 4.0 36100.0 4.0 36100.0 4.0 18050.0 4.0 36100.0 4.0 4.0 4.0 1639.0 1669.0 0.0 
71.0 0.0 4255.0 896610.0 4266.0 1905510.0 4074.0 1387190.0 4069.0 2123060.0 4194.0 -871340.0 4336.0 2414615.0 4152.0 -2685650.0 438.0 18050.0 4.0 9025.0 4.0 36100.0 4.0 36100.0 4.0 36100.0 4.0 18050.0 4.0 36100.0 4.0 4.0 4.0 1639.0 1671.0 0.0 
72.0 0.0 4257.0 915135.0 4266.0 1873115.0 4083.0 1396405.0 4071.0 2206375.0 4203.0 -806550.0 4341.0 2484060.0 4163.0 -2616205.0 447.0 18050.0 4.0 9025.0 4.0 36100.0 4.0 36100.0 4.0 36100.0 4.0 18050.0 4.0 36100.0 4.0 4.0 4.0 1638.0 1669.0 0.0 
73.0 0.0 4259.0 938220.0 4265.0 1896295.0 4085.0 1391845.0 4073.0 2224900.0 4209.0 -811205.0 4349.0 2581245.0 4167.0 -2514365.0 416.0 18050.0 4.0 9025.0 4.0 36100.0 4.0 36100.0 4.0 36100.0 4.0 18050.0 4.0 36100.0 4.0 4.0 4.0 1636.0 1670.0 0.0 
74.0 0.0 4259.0 905825.0 4265.0 1891640.0 4078.0 1382535.0 4072.0 2197160.0 4209.0 -797335.0 4350.0 2613640.0 4173.0 -2509805.0 433.0 18050.0 4.0 9025.0 4.0 36100.0 4.0 36100.0 4.0 36100.0 4.0 18050.0 4.0 36100.0 4.0 4.0 4.0 1637.0 1669.0 0.0 
75.0 0.0 4257.0 864215.0 4266.0 1868555.0 4074.0 1387190.0 4074.0 2247985.0 4211.0 -755630.0 4346.0 2595115.0 4182.0 -2519020.0 376.0 18050.0 4.0 9025.0 4.0 36100.0 4.0 36100.0 4.0 36100.0 4.0 18050.0 4.0 36100.0 4.0 4.0 4.0 1637.0 1670.0 0.0 
76.0 0.0 4257.0 882740.0 4268.0 1882425.0 4076.0 1396405.0 4084.0 2303560.0 4212.0 -788025.0 4344.0 2595115.0 4180.0 -2532890.0 240.0 18050.0 4.0 9025.0 4.0 36100.0 4.0 36100.0 4.0 36100.0 4.0 18050.0 4.0 36100.0 4.0 4.0 4.0 1636.0 1669.0 0.0 
77.0 0.0 4257.0 915135.0 4270.0 1910165.0 4075.0 1401060.0 4091.0 2331300.0 4212.0 -797335.0 4344.0 2604425.0 4172.0 -2556070.0 417.0 18050.0 4.0 9025.0 4.0 36100.0 4.0 36100.0 4.0 36100.0 4.0 18050.0 4.0 36100.0 4.0 4.0 4.0 1636.0 1669.0 0.0 
78.0 0.0 4259.0 938220.0 4271.0 1951870.0 4079.0 1396405.0 4086.0 2363695.0 4217.0 -760285.0 4344.0 2627510.0 4177.0 -2537545.0 433.0 18050.0 4.0 9025.0 4.0 36100.0 4.0 36100.0 4.0 36100.0 4.0 18050.0 4.0 36100.0 4.0 4.0 4.0 1637.0 1668.0 0.0 
79.0 0.0 4261.0 938220.0 4271.0 2007350.0 4088.0 1405715.0 4080.0 2340610.0 4222.0 -732545.0 4344.0 2664560.0 4187.0 -2486625.0 376.0 18050.0 4.0 9025.0 4.0 36100.0 4.0 36100.0 4.0 36100.0 4.0 18050.0 4.0 36100.0 4.0 4.0 4.0 1636.0 1669.0 0.0 
80.0 0.0 4263.0 901265.0 4272.0 1974955.0 4084.0 1401060.0 4078.0 2298905.0 4216.0 -788025.0 4342.0 2655345.0 4183.0 -2468100.0 240.0 18050.0 4.0 9025.0 4.0 36100.0 4.0 36100.0 4.0 36100.0 4.0 18050.0 4.0 36100.0 4.0 4.0 4.0 1637.0 1669.0 0.0 
81.0 0.0 4258.0 868870.0 4267.0 1900950.0 4071.0 1377975.0 4079.0 2298905.0 4206.0 -908390.0 4335.0 2595115.0 4172.0 -2509805.0 417.0 18050.0 4.0 9025.0 4.0 36100.0 4.0 36100.0 4.0 36100.0 4.0 18050.0 4.0 36100.0 4.0 4.0 4.0 1637.0 1669.0 0.0 
82.0 0.0 4258.0 878085.0 4266.0 1910165.0 4073.0 1377975.0 4081.0 2261950.0 4204.0 -899175.0 4335.0 2618295.0 4170.0 -2532890.0 433.0 18050.0 4.0 9025.0 4.0 36100.0 4.0 36100.0 4.0 36100.0 4.0 18050.0 4.0 36100.0 4.0 4.0 4.0 1637.0 1667.0 0.0 
83.0 0.0 4262.0 905825.0 4264.0 1984265.0 4089.0 1410370.0 4081.0 2243425.0 4209.0 -820515.0 4337.0 2669215.0 4176.0 -2519020.0 376.0 18050.0 4.0 9025.0 4.0 36100.0 4.0 36100.0 4.0 36100.0 4.0 18050.0 4.0 36100.0 4.0 4.0 4.0 1637.0 1667.0 0.0 
84.0 0.0 4265.0 924350.0 4263.0 2002695.0 4094.0 1424240.0 4077.0 2271165.0 4209.0 -820515.0 4335.0 2636820.0 4174.0 -2528235.0 240.0 18050.0 4.0 9025.0 4.0 36100.0 4.0 36100.0 4.0 36100.0 4.0 18050.0 4.0 36100.0 4.0 4.0 4.0 1638.0 1667.0 0.0 
85.0 0.0 4259.0 896610.0 4258.0 1970300.0 4085.0 1401060.0 4078.0 2266510.0 4212.0 -764940.0 4333.0 2618295.0 4171.0 -2574595.0 417.0 18050.0 4.0 9025.0 4.0 36100.0 4.0 36100.0 4.0 36100.0 4.0 18050.0 4.0 36100.0 4.0 4.0 4.0 1639.0 1667.0 0.0 
86.0 0.0 4261.0 868870.0 4261.0 1979610.0 4081.0 1405715.0 4089.0 2298905.0 4223.0 -672410.0 4339.0 2664560.0 4178.0 -2579155.0 433.0 18050.0 4.0 9025.0 4.0 36100.0 4.0 36100.0 4.0 36100.0 4.0 18050.0 4.0 36100.0 4.0 4.0 4.0 1639.0 1667.0 0.0 
87.0 0.0 4268.0 929005.0 4264.0 2053615.0 4091.0 1475160.0 4095.0 2396090.0 4229.0 -663100.0 4346.0 2701610.0 4186.0 -2528235.0 376.0 18050.0 4.0 9025.0 4.0 36100.0 4.0 36100.0 4.0 36100.0 4.0 18050.0 4.0 36100.0 4.0 4.0 4.0 1638.0 1668.0 0.0 
88.0 0.0 4271.0 998450.0 4265.0 2104535.0 4098.0 1502900.0 4093.0 2396090.0 4228.0 -686280.0 4345.0 2710825.0 4192.0 -2486625.0 240.0 18050.0 4.0 9025.0 4.0 36100.0 4.0 36100.0 4.0 36100.0 4.0 18050.0 4.0 36100.0 4.0 4.0 4.0 1639.0 1667.0 0.0 
89.0 0.0 4265.0 924350.0 4260.0 2049055.0 4092.0 1438110.0 4090.0 2340610.0 4226.0 -718675.0 4339.0 2678430.0 4187.0 -2556070.0 417.0 18050.0 4.0 9025.0 4.0 36100.0 4.0 36100.0 4.0 36100.0 4.0 18050.0 4.0 36100.0 4.0 4.0 4.0 1638.0 1665.0 0.0 
90.0 0.0 4258.0 790115.0 4259.0 1984265.0 4086.0 1396405.0 4087.0 2391530.0 4228.0 -806550.0 4332.0 2599770.0 4170.0 -2648600.0 433.0 18050.0 4.0 9025.0 4.0 36100.0 4.0 36100.0 4.0 36100.0 4.0 18050.0 4.0 36100.0 4.0 4.0 4.0 1638.0 1667.0 0.0 
91.0 0.0 4257.0 794770.0 4264.0 1993480.0 4089.0 1419585.0 4084.0 2419270.0 4224.0 -852910.0 4330.0 2581245.0 4166.0 -2639385.0 376.0 18050.0 4.0 9025.0 4.0 36100.0 4.0 36100.0 4.0 36100.0 4.0 18050.0 4.0 36100.0 4.0 4.0 4.0 1638.0 1666.0 0.0 
92.0 0.0 4262.0 887300.0 4264.0 2021220.0 4090.0 1419585.0 4084.0 2317430.0 4212.0 -848255.0 4333.0 2608985.0 4181.0 -2551415.0 240.0 18050.0 4.0 9025.0 4.0 36100.0 4.0 36100.0 4.0 36100.0 4.0 18050.0 4.0 36100.0 4.0 4.0 4.0 1637.0 1666.0 0.0 
93.0 0.0 4265.0 854905.0 4260.0 1965740.0 4086.0 1414930.0 4080.0 2192505.0 4203.0 -829730.0 4338.0 2632165.0 4188.0 -2514365.0 417.0 18050.0 4.0 9025.0 4.0 36100.0 4.0 36100.0 4.0 36100.0 4.0 18050.0 4.0 36100.0 4.0 4.0 4.0 1638.0 1666.0 0.0 
94.0 0.0 4262.0 767030.0 4261.0 1877770.0 4086.0 1428800.0 4076.0 2206375.0 4207.0 -783465.0 4341.0 2692300.0 4191.0 -2481970.0 433.0 18050.0 4.0 9025.0 4.0 36100.0 4.0 36100.0 4.0 36100.0 4.0 18050.0 4.0 36100.0 4.0 4.0 4.0 1637.0 1666.0 0.0 
95.0 0.0 4268.0 762375.0 4264.0 1896295.0 4091.0 1433455.0 4080.0 2298905.0 4217.0 -709365.0 4347.0 2789485.0 4206.0 -2384785.0 376.0 18050.0 4.0 9025.0 4.0 36100.0 4.0 36100.0 4.0 36100.0 4.0 18050.0 4.0 36100.0 4.0 4.0 4.0 1638.0 1667.0 0.0 
96.0 0.0 4270.0 767030.0 4262.0 1942560.0 4095.0 1438110.0 4085.0 2331300.0 4225.0 -672410.0 4354.0 2840405.0 4216.0 -2333865.0 240.0 18050.0 4.0 9025.0 4.0 36100.0 4.0 36100.0 4.0 36100.0 4.0 18050.0 4.0 36100.0 4.0 4.0 4.0 1636.0 1667.0 0.0 
97.0 0.0 4267.0 748505.0 4264.0 1933345.0 4094.0 1438110.0 4084.0 2359135.0 4233.0 -676970.0 4355.0 2854370.0 4217.0 -2329305.0 417.0 18050.0 4.0 9025.0 4.0 36100.0 4.0 36100.0 4.0 36100.0 4.0 18050.0 4.0 36100.0 4.0 4.0 4.0 1637.0 1667.0 0.0 
98.0 0.0 4272.0 817950.0 4267.0 1984265.0 4090.0 1428800.0 4085.0 2410055.0 4233.0 -690840.0 4352.0 2877455.0 4217.0 -2287600.0 433.0 18050.0 4.0 9025.0 4.0 36100.0 4.0 36100.0 4.0 36100.0 4.0 18050.0 4.0 36100.0 4.0 4.0 4.0 1636.0 1668.0 0.0 
99.0 0.0 4281.0 915135.0 4268.0 2062925.0 4090.0 1438110.0 4085.0 2414615.0 4227.0 -672410.0 4351.0 2956115.0 4215.0 -2222810.0 376.0 18050.0 4.0 9025.0 4.0 36100.0 4.0 36100.0 4.0 36100.0 4.0 18050.0 4.0 36100.0 4.0 4.0 4.0 1636.0 1668.0 0.0 
100.0 0.0 4281.0 891955.0 4265.0 2030530.0 4091.0 1438110.0 4086.0 2391530.0 4227.0 -686280.0 4352.0 3011690.0 4214.0 -2199630.0 240.0 18050.0 4.0 9025.0 4.0 36100.0 4.0 36100.0 4.0 36100.0 4.0 18050.0 4.0 36100.0 4.0 4.0 4.0 1635.0 1667.0 0.0 
101.0 0.0 4277.0 831820.0 4266.0 1942560.0 4085.0 1410370.0 4092.0 2391530.0 4226.0 -764940.0 4351.0 2979295.0 4213.0 -2245990.0 417.0 18050.0 4.0 9025.0 4.0 36100.0 4.0 36100.0 4.0 36100.0 4.0 18050.0 4.0 36100.0 4.0 4.0 4.0 1635.0 1668.0 0.0 
102.0 0.0 4277.0 854905.0 4262.0 1979610.0 4083.0 1405715.0 4094.0 2396090.0 4221.0 -764940.0 4352.0 2965425.0 4218.0 -2306125.0 433.0 18050.0 4.0 9025.0 4.0 36100.0 4.0 36100.0 4.0 36100.0 4.0 18050.0 4.0 36100.0 4.0 4.0 4.0 1636.0 1666.0 0.0 
103.0 0.0 4279.0 882740.0 4264.0 2058270.0 4092.0 1424240.0 4089.0 2386875.0 4219.0 -653885.0 4359.0 3039430.0 4226.0 -2273730.0 376.0 18050.0 4.0 9025.0 4.0 36100.0 4.0 36100.0 4.0 36100.0 4.0 18050.0 4.0 36100.0 4.0 4.0 4.0 1634.0 1667.0 0.0 
104.0 0.0 4277.0 822510.0 4263.0 2021220.0 4094.0 1414930.0 4087.0 2400745.0 4223.0 -593655.0 4362.0 3053300.0 4225.0 -2255205.0 240.0 18050.0 4.0 9025.0 4.0 36100.0 4.0 36100.0 4.0 36100.0 4.0 18050.0 4.0 36100.0 4.0 4.0 4.0 1635.0 1667.0 0.0 
105.0 0.0 4272.0 790115.0 4262.0 1961085.0 4093.0 1396405.0 4092.0 2442450.0 4224.0 -644575.0 4358.0 2960770.0 4224.0 -2338520.0 417.0 18050.0 4.0 9025.0 4.0 36100.0 4.0 36100.0 4.0 36100.0 4.0 18050.0 4.0 36100.0 4.0 4.0 4.0 1634.0 1667.0 0.0 
106.0 0.0 4270.0 813295.0 4260.0 1974955.0 4096.0 1410370.0 4094.0 2493370.0 4228.0 -695495.0 4354.0 2900635.0 4222.0 -2389440.0 433.0 18050.0 4.0 9025.0 4.0 36100.0 4.0 36100.0 4.0 36100.0 4.0 18050.0 4.0 36100.0 4.0 4.0 4.0 1635.0 1667.0 0.0 
107.0 0.0 4273.0 817950.0 4261.0 1998135.0 4095.0 1428800.0 4094.0 2497930.0 4231.0 -667755.0 4353.0 2882110.0 4214.0 -2384785.0 376.0 18050.0 4.0 9025.0 4.0 36100.0 4.0 36100.0 4.0 36100.0 4.0 18050.0 4.0 36100.0 4.0 4.0 4.0 1635.0 1667.0 0.0 
108.0 0.0 4271.0 817950.0 4261.0 1974955.0 4094.0 1424240.0 4092.0 2419270.0 4222.0 -686280.0 4349.0 2826535.0 4212.0 -2426490.0 240.0 18050.0 4.0 9025.0 4.0 36100.0 4.0 36100.0 4.0 36100.0 4.0 18050.0 4.0 36100.0 4.0 4.0 4.0 1635.0 1668.0 0.0 
109.0 0.0 4262.0 785555.0 4259.0 1914820.0 4095.0 1410370.0 4091.0 2414615.0 4216.0 -732545.0 4344.0 2771055.0 4216.0 -2445015.0 417.0 18050.0 4.0 9025.0 4.0 36100.0 4.0 36100.0 4.0 36100.0 4.0 18050.0 4.0 36100.0 4.0 4.0 4.0 1635.0 1668.0 0.0 
110.0 0.0 4258.0 720765.0 4259.0 1873115.0 4094.0 1401060.0 4092.0 2484060.0 4228.0 -686280.0 4347.0 2775615.0 4218.0 -2407965.0 433.0 18050.0 4.0 9025.0 4.0 36100.0 4.0 36100.0 4.0 36100.0 4.0 18050.0 4.0 36100.0 4.0 4.0 4.0 1636.0 1668.0 0.0 
111.0 0.0 4262.0 743850.0 4262.0 1905510.0 4093.0 1401060.0 4092.0 2474845.0 4237.0 -602965.0 4353.0 2808010.0 4222.0 -2394095.0 376.0 18050.0 4.0 9025.0 4.0 36100.0 4.0 36100.0 4.0 36100.0 4.0 18050.0 4.0 36100.0 4.0 4.0 4.0 1635.0 1667.0 0.0 
112.0 0.0 4264.0 785555.0 4265.0 1961085.0 4095.0 1405715.0 4091.0 2400745.0 4234.0 -612180.0 4352.0 2840405.0 4222.0 -2417180.0 240.0 18050.0 4.0 9025.0 4.0 36100.0 4.0 36100.0 4.0 36100.0 4.0 18050.0 4.0 36100.0 4.0 4.0 4.0 1635.0 1669.0 0.0 
113.0 0.0 4260.0 697585.0 4261.0 1910165.0 4093.0 1396405.0 4097.0 2437795.0 4233.0 -709365.0 4345.0 2840405.0 4209.0 -2481970.0 417.0 18050.0 4.0 9025.0 4.0 36100.0 4.0 36100.0 4.0 36100.0 4.0 18050.0 4.0 36100.0 4.0 4.0 4.0 1637.0 1668.0 0.0 
114.0 0.0 4263.0 646665.0 4263.0 1850030.0 4091.0 1382535.0 4104.0 2534980.0 4236.0 -751070.0 4344.0 2854370.0 4200.0 -2463445.0 433.0 18050.0 4.0 9025.0 4.0 36100.0 4.0 36100.0 4.0 36100.0 4.0 18050.0 4.0 36100.0 4.0 4.0 4.0 1636.0 1669.0 0.0 
115.0 0.0 4268.0 739195.0 4264.0 1919475.0 4090.0 1387190.0 4100.0 2497930.0 4231.0 -704805.0 4349.0 2895980.0 4205.0 -2384785.0 376.0 18050.0 4.0 9025.0 4.0 36100.0 4.0 36100.0 4.0 36100.0 4.0 18050.0 4.0 36100.0 4.0 4.0 4.0 1637.0 1668.0 0.0 
116.0 0.0 4270.0 780900.0 4264.0 1998135.0 4089.0 1401060.0 4093.0 2423925.0 4227.0 -653885.0 4354.0 2928375.0 4214.0 -2352390.0 240.0 18050.0 4.0 9025.0 4.0 36100.0 4.0 36100.0 4.0 36100.0 4.0 18050.0 4.0 36100.0 4.0 4.0 4.0 1636.0 1669.0 0.0 
117.0 0.0 4268.0 757720.0 4263.0 1974955.0 4100.0 1396405.0 4094.0 2460975.0 4235.0 -598310.0 4357.0 2956115.0 4225.0 -2315340.0 417.0 18050.0 4.0 9025.0 4.0 36100.0 4.0 36100.0 4.0 36100.0 4.0 18050.0 4.0 36100.0 4.0 4.0 4.0 1638.0 1668.0 0.0 
118.0 0.0 4265.0 716110.0 4266.0 1905510.0 4109.0 1387190.0 4095.0 2474845.0 4239.0 -542735.0 4360.0 2974640.0 4228.0 -2278385.0 433.0 18050.0 4.0 9025.0 4.0 36100.0 4.0 36100.0 4.0 36100.0 4.0 18050.0 4.0 36100.0 4.0 4.0 4.0 1638.0 1665.0 0.0 
119.0 0.0 4258.0 572660.0 4260.0 1826850.0 4094.0 1401060.0 4096.0 2368350.0 4227.0 -602965.0 4352.0 2872800.0 4216.0 -2389440.0 376.0 18050.0 4.0 9025.0 4.0 36100.0 4.0 36100.0 4.0 36100.0 4.0 18050.0 4.0 36100.0 4.0 4.0 4.0 1640.0 1663.0 0.0 
120.0 0.0 4257.0 498560.0 4258.0 1803765.0 4085.0 1401060.0 4092.0 2308215.0 4222.0 -714020.0 4342.0 2724695.0 4206.0 -2486625.0 240.0 18050.0 4.0 9025.0 4.0 36100.0 4.0 36100.0 4.0 36100.0 4.0 18050.0 4.0 36100.0 4.0 4.0 4.0 1641.0 1661.0 0.0 
121.0 0.0 4263.0 637450.0 4261.0 1863900.0 4092.0 1373320.0 4085.0 2345265.0 4235.0 -658445.0 4344.0 2747875.0 4209.0 -2417180.0 417.0 18050.0 4.0 9025.0 4.0 36100.0 4.0 36100.0 4.0 36100.0 4.0 18050.0 4.0 36100.0 4.0 4.0 4.0 1643.0 1660.0 0.0 
122.0 0.0 4266.0 729980.0 4263.0 1896295.0 4094.0 1368665.0 4084.0 2303560.0 4230.0 -570570.0 4352.0 2863585.0 4216.0 -2352390.0 433.0 18050.0 4.0 9025.0 4.0 36100.0 4.0 36100.0 4.0 36100.0 4.0 18050.0 4.0 36100.0 4.0 4.0 4.0 1644.0 1660.0 0.0 
123.0 0.0 4266.0 660535.0 4264.0 1882425.0 4096.0 1396405.0 4089.0 2247985.0 4211.0 -593655.0 4355.0 2872800.0 4221.0 -2361700.0 376.0 18050.0 4.0 9025.0 4.0 36100.0 4.0 36100.0 4.0 36100.0 4.0 18050.0 4.0 36100.0 4.0 4.0 4.0 1645.0 1660.0 0.0 
124.0 0.0 4268.0 642010.0 4265.0 1910165.0 4105.0 1414930.0 4087.0 2298905.0 4214.0 -626050.0 4357.0 2872800.0 4227.0 -2315340.0 240.0 18050.0 4.0 9025.0 4.0 36100.0 4.0 36100.0 4.0 36100.0 4.0 18050.0 4.0 36100.0 4.0 4.0 4.0 1647.0 1660.0 0.0 
125.0 0.0 4269.0 692930.0 4268.0 1910165.0 4104.0 1396405.0 4083.0 2335955.0 4223.0 -626050.0 4360.0 2942245.0 4230.0 -2273730.0 417.0 18050.0 4.0 9025.0 4.0 36100.0 4.0 36100.0 4.0 36100.0 4.0 18050.0 4.0 36100.0 4.0 4.0 4.0 1646.0 1662.0 0.0 
126.0 0.0 4271.0 743850.0 4272.0 1928690.0 4104.0 1377975.0 4089.0 2359135.0 4224.0 -561260.0 4360.0 2993165.0 4235.0 -2250550.0 433.0 18050.0 4.0 9025.0 4.0 36100.0 4.0 36100.0 4.0 36100.0 4.0 18050.0 4.0 36100.0 4.0 4.0 4.0 1647.0 1663.0 0.0 
127.0 0.0 4277.0 767030.0 4272.0 1979610.0 4110.0 1391845.0 4096.0 2451665.0 4232.0 -450205.0 4363.0 2965425.0 4241.0 -2250550.0 376.0 18050.0 4.0 9025.0 4.0 36100.0 4.0 36100.0 4.0 36100.0 4.0 18050.0 4.0 36100.0 4.0 4.0 4.0 1647.0 1664.0 0.0 
128.0 0.0 4273.0 692930.0 4264.0 1947215.0 4101.0 1382535.0 4095.0 2479405.0 4235.0 -445550.0 4366.0 2909850.0 4235.0 -2310780.0 240.0 18050.0 4.0 18050.0 4.0 36100.0 4.0 36100.0 4.0 36100.0 4.0 18050.0 4.0 36100.0 4.0 4.0 4.0 1648.0 1666.0 0.0 
0.0 0.0 4265.0 600400.0 4263.0 1863900.0 4089.0 1308530.0 4092.0 2428485.0 4226.0 -570570.0 4364.0 2895980.0 4221.0 -2384785.0 40.0 18050.0 4.0 0.0 4.0 36100.0 4.0 36100.0 4.0 36100.0 4.0 18050.0 4.0 36100.0 4.0 4.0 4.0 1647.0 1667.0 0.0 
1.0 0.0 4266.0 628140.0 4265.0 1896295.0 4094.0 1313090.0 4098.0 2423925.0 4225.0 -635360.0 4362.0 2905195.0 4219.0 -2394095.0 488.0 18050.0 4.0 0.0 4.0 36100.0 4.0 36100.0 4.0 36100.0 4.0 18050.0 4.0 36100.0 4.0 4.0 4.0 1646.0 1668.0 0.0 
2.0 0.0 4270.0 665190.0 4266.0 1961085.0 4102.0 1396405.0 4103.0 2456320.0 4229.0 -598310.0 4367.0 2933030.0 4224.0 -2347735.0 253.0 18050.0 4.0 0.0 4.0 36100.0 4.0 36100.0 4.0 36100.0 4.0 18050.0 4.0 36100.0 4.0 4.0 4.0 1646.0 1669.0 0.0 
3.0 0.0 4266.0 660535.0 4257.0 1924035.0 4099.0 1410370.0 4103.0 2497930.0 4231.0 -575130.0 4369.0 2960770.0 4225.0 -2366260.0 497.0 18050.0 4.0 0.0 4.0 36100.0 4.0 36100.0 4.0 36100.0 4.0 18050.0 4.0 36100.0 4.0 4.0 4.0 1646.0 1670.0 0.0 
4.0 0.0 4266.0 655975.0 4257.0 1919475.0 4099.0 1382535.0 4104.0 2544195.0 4233.0 -612180.0 4369.0 2974640.0 4226.0 -2370915.0 477.0 18050.0 4.0 0.0 4.0 36100.0 4.0 36100.0 4.0 36100.0 4.0 18050.0 4.0 36100.0 4.0 4.0 4.0 1645.0 1670.0 0.0 
5.0 0.0 4271.0 655975.0 4255.0 1984265.0 4099.0 1410370.0 4105.0 2530325.0 4230.0 -626050.0 4373.0 2974640.0 4227.0 -2333865.0 494.0 18050.0 4.0 0.0 4.0 36100.0 4.0 36100.0 4.0 36100.0 4.0 18050.0 4.0 36100.0 4.0 4.0 4.0 1644.0 1671.0 0.0 
6.0 0.0 4272.0 623485.0 4251.0 1961085.0 4094.0 1410370.0 4108.0 2442450.0 4224.0 -542735.0 4375.0 2997820.0 4228.0 -2315340.0 502.0 18050.0 4.0 0.0 4.0 36100.0 4.0 36100.0 4.0 36100.0 4.0 18050.0 4.0 36100.0 4.0 4.0 4.0 1642.0 1671.0 0.0 
7.0 0.0 4270.0 646665.0 4248.0 1919475.0 4102.0 1387190.0 4107.0 2396090.0 4226.0 -505780.0 4372.0 3011690.0 4231.0 -2324650.0 438.0 18050.0 4.0 0.0 4.0 36100.0 4.0 36100.0 4.0 36100.0 4.0 18050.0 4.0 36100.0 4.0 4.0 4.0 1640.0 1671.0 0.0 
8.0 0.0 4273.0 688370.0 4254.0 1979610.0 4108.0 1401060.0 4097.0 2437795.0 4232.0 -547390.0 4372.0 2956115.0 4233.0 -2301470.0 447.0 18050.0 4.0 0.0 4.0 36100.0 4.0 36100.0 4.0 36100.0 4.0 18050.0 4.0 36100.0 4.0 4.0 4.0 1638.0 1673.0 0.0 
9.0 0.0 4274.0 651320.0 4252.0 2021220.0 4104.0 1410370.0 4095.0 2442450.0 4233.0 -538175.0 4367.0 2891325.0 4224.0 -2324650.0 416.0 18050.0 4.0 0.0 4.0 36100.0 4.0 36100.0 4.0 36100.0 4.0 18050.0 4.0 36100.0 4.0 4.0 4.0 1637.0 1674.0 0.0 
10.0 0.0 4274.0 623485.0 4247.0 1970300.0 4099.0 1419585.0 4098.0 2326740.0 4223.0 -556700.0 4361.0 2863585.0 4216.0 -2366260.0 433.0 18050.0 4.0 0.0 4.0 36100.0 4.0 36100.0 4.0 36100.0 4.0 18050.0 4.0 36100.0 4.0 4.0 4.0 1635.0 1673.0 0.0 
11.0 0.0 4271.0 595745.0 4253.0 1914820.0 4098.0 1419585.0 4094.0 2243425.0 4211.0 -621490.0 4355.0 2845060.0 4215.0 -2394095.0 374.0 18050.0 4.0 0.0 4.0 36100.0 4.0 36100.0 4.0 36100.0 4.0 18050.0 4.0 36100.0 4.0 4.0 4.0 1634.0 1674.0 0.0 
12.0 0.0 4265.0 526300.0 4255.0 1886985.0 4091.0 1382535.0 4088.0 2285035.0 4214.0 -658445.0 4357.0 2835845.0 4214.0 -2412525.0 242.0 18050.0 4.0 0.0 4.0 36100.0 4.0 36100.0 4.0 36100.0 4.0 18050.0 4.0 36100.0 4.0 4.0 4.0 1634.0 1674.0 0.0 
13.0 0.0 4267.0 521740.0 4252.0 1900950.0 4087.0 1377975.0 4094.0 2335955.0 4221.0 -621490.0 4367.0 2891325.0 4217.0 -2370915.0 415.0 18050.0 4.0 0.0 4.0 36100.0 4.0 36100.0 4.0 36100.0 4.0 18050.0 4.0 36100.0 4.0 4.0 4.0 1633.0 1675.0 0.0 
14.0 0.0 4276.0 600400.0 4255.0 1914820.0 4094.0 1401060.0 4103.0 2391530.0 4224.0 -491910.0 4378.0 2974640.0 4231.0 -2310780.0 433.0 18050.0 4.0 0.0 4.0 36100.0 4.0 36100.0 4.0 36100.0 4.0 18050.0 4.0 36100.0 4.0 4.0 4.0 1633.0 1674.0 0.0 
15.0 0.0 4279.0 618925.0 4263.0 1886985.0 4099.0 1387190.0 4105.0 2447010.0 4228.0 -394630.0 4379.0 2979295.0 4242.0 -2319995.0 374.0 18050.0 4.0 0.0 4.0 36100.0 4.0 36100.0 4.0 36100.0 4.0 18050.0 4.0 36100.0 4.0 4.0 4.0 1631.0 1676.0 0.0 
16.0 0.0 4273.0 572660.0 4262.0 1886985.0 4097.0 1368665.0 4103.0 2465535.0 4232.0 -450205.0 4374.0 2933030.0 4235.0 -2343175.0 0.0 18050.0 4.0 0.0 4.0 36100.0 4.0 36100.0 4.0 36100.0 4.0 18050.0 4.0 36100.0 4.0 4.0 4.0 1632.0 1676.0 0.0 
17.0 0.0 4269.0 521740.0 4259.0 1831505.0 4095.0 1382535.0 4100.0 2428485.0 4228.0 -538175.0 4373.0 2882110.0 4223.0 -2366260.0 0.0 18050.0 4.0 0.0 4.0 36100.0 4.0 36100.0 4.0 36100.0 4.0 18050.0 4.0 36100.0 4.0 4.0 4.0 1631.0 1675.0 0.0 
18.0 0.0 4268.0 493905.0 4258.0 1762060.0 4098.0 1377975.0 4095.0 2368350.0 4219.0 -528865.0 4375.0 2845060.0 4220.0 -2449575.0 0.0 18050.0 4.0 0.0 4.0 36100.0 4.0 36100.0 4.0 36100.0 4.0 18050.0 4.0 36100.0 4.0 4.0 4.0 1631.0 1677.0 0.0 
19.0 0.0 4270.0 489345.0 4259.0 1799110.0 4101.0 1345485.0 4094.0 2308215.0 4212.0 -533520.0 4375.0 2840405.0 4225.0 -2486625.0 0.0 18050.0 4.0 0.0 4.0 36100.0 4.0 36100.0 4.0 36100.0 4.0 18050.0 4.0 36100.0 4.0 4.0 4.0 1631.0 1675.0 0.0 
20.0 0.0 4272.0 475475.0 4258.0 1836160.0 4101.0 1368665.0 4100.0 2280475.0 4211.0 -565915.0 4368.0 2821975.0 4222.0 -2472755.0 0.0 18050.0 4.0 0.0 4.0 36100.0 4.0 36100.0 4.0 36100.0 4.0 18050.0 4.0 36100.0 4.0 4.0 4.0 1631.0 1676.0 0.0 
21.0 0.0 4275.0 461510.0 4262.0 1831505.0 4104.0 1414930.0 4097.0 2308215.0 4217.0 -501125.0 4369.0 2835845.0 4214.0 -2458885.0 0.0 18050.0 4.0 0.0 4.0 36100.0 4.0 36100.0 4.0 36100.0 4.0 18050.0 4.0 36100.0 4.0 4.0 4.0 1631.0 1675.0 0.0 
22.0 0.0 4278.0 535610.0 4262.0 1859245.0 4108.0 1419585.0 4090.0 2359135.0 4224.0 -445550.0 4376.0 2895980.0 4219.0 -2445015.0 0.0 18050.0 4.0 0.0 4.0 36100.0 4.0 36100.0 4.0 36100.0 4.0 18050.0 4.0 36100.0 4.0 4.0 4.0 1632.0 1675.0 0.0 
23.0 0.0 4279.0 614270.0 4263.0 1877770.0 4107.0 1424240.0 4099.0 2382220.0 4225.0 -524305.0 4376.0 2937590.0 4229.0 -2398655.0 0.0 18050.0 4.0 0.0 4.0 36100.0 4.0 36100.0 4.0 36100.0 4.0 18050.0 4.0 36100.0 4.0 4.0 4.0 1632.0 1674.0 0.0 
24.0 0.0 4276.0 581875.0 4259.0 1854590.0 4105.0 1424240.0 4109.0 2410055.0 4226.0 -552045.0 4375.0 2969985.0 4230.0 -2347735.0 0.0 18050.0 4.0 0.0 4.0 36100.0 4.0 36100.0 4.0 36100.0 4.0 18050.0 4.0 36100.0 4.0 4.0 4.0 1633.0 1677.0 0.0 
25.0 0.0 4276.0 521740.0 4259.0 1850030.0 4106.0 1401060.0 4106.0 2456320.0 4231.0 -422465.0 4382.0 2988510.0 4233.0 -2329305.0 0.0 18050.0 4.0 0.0 4.0 36100.0 4.0 36100.0 4.0 36100.0 4.0 18050.0 4.0 36100.0 4.0 4.0 4.0 1634.0 1676.0 0.0 
26.0 0.0 4278.0 498560.0 4258.0 1817635.0 4107.0 1387190.0 4106.0 2479405.0 4232.0 -394630.0 4384.0 2942245.0 4239.0 -2389440.0 0.0 18050.0 4.0 0.0 4.0 36100.0 4.0 36100.0 4.0 36100.0 4.0 18050.0 4.0 36100.0 4.0 4.0 4.0 1634.0 1677.0 0.0 
27.0 0.0 4273.0 461510.0 4256.0 1771370.0 4104.0 1396405.0 4105.0 2456320.0 4228.0 -505780.0 4376.0 2886765.0 4234.0 -2495840.0 0.0 18050.0 4.0 0.0 4.0 36100.0 4.0 36100.0 4.0 36100.0 4.0 18050.0 4.0 36100.0 4.0 4.0 4.0 1636.0 1677.0 0.0 
28.0 0.0 4271.0 456950.0 4258.0 1794455.0 4106.0 1396405.0 4097.0 2400745.0 4227.0 -510340.0 4372.0 2882110.0 4223.0 -2519020.0 0.0 18050.0 4.0 0.0 4.0 36100.0 4.0 36100.0 4.0 36100.0 4.0 18050.0 4.0 36100.0 4.0 4.0 4.0 1636.0 1677.0 0.0 
29.0 0.0 4275.0 554135.0 4259.0 1873115.0 4118.0 1391845.0 4095.0 2386875.0 4226.0 -464075.0 4374.0 2858930.0 4223.0 -2481970.0 0.0 18050.0 4.0 0.0 4.0 36100.0 4.0 36100.0 4.0 36100.0 4.0 18050.0 4.0 36100.0 4.0 4.0 4.0 1640.0 1679.0 0.0 
30.0 0.0 4275.0 642010.0 4260.0 1919475.0 4125.0 1424240.0 4103.0 2419270.0 4224.0 -519650.0 4376.0 2835845.0 4227.0 -2481970.0 0.0 18050.0 4.0 0.0 4.0 36100.0 4.0 36100.0 4.0 36100.0 4.0 18050.0 4.0 36100.0 4.0 4.0 4.0 1642.0 1678.0 0.0 
31.0 0.0 4266.0 609615.0 4258.0 1891640.0 4126.0 1433455.0 4106.0 2423925.0 4224.0 -607525.0 4370.0 2794140.0 4218.0 -2556070.0 0.0 18050.0 4.0 0.0 4.0 36100.0 4.0 36100.0 4.0 36100.0 4.0 18050.0 4.0 36100.0 4.0 4.0 4.0 1644.0 1681.0 0.0 
32.0 0.0 4265.0 581875.0 4259.0 1850030.0 4125.0 1401060.0 4102.0 2428485.0 4229.0 -630705.0 4365.0 2789485.0 4212.0 -2643945.0 0.0 18050.0 4.0 0.0 4.0 36100.0 4.0 36100.0 4.0 36100.0 4.0 18050.0 4.0 36100.0 4.0 4.0 4.0 1647.0 1681.0 0.0 
33.0 0.0 4268.0 692930.0 4259.0 1928690.0 4124.0 1387190.0 4103.0 2460975.0 4233.0 -565915.0 4369.0 2831190.0 4218.0 -2708735.0 0.0 18050.0 4.0 0.0 4.0 36100.0 4.0 36100.0 4.0 36100.0 4.0 18050.0 4.0 36100.0 4.0 4.0 4.0 1651.0 1684.0 0.0 
34.0 0.0 4268.0 734635.0 4263.0 1965740.0 4125.0 1410370.0 4108.0 2470190.0 4236.0 -514995.0 4373.0 2821975.0 4214.0 -2768965.0 0.0 18050.0 4.0 0.0 4.0 36100.0 4.0 36100.0 4.0 36100.0 4.0 18050.0 4.0 36100.0 4.0 4.0 4.0 1654.0 1685.0 0.0 
35.0 0.0 4265.0 655975.0 4259.0 1910165.0 4123.0 1401060.0 4108.0 2479405.0 4245.0 -552045.0 4371.0 2784925.0 4204.0 -2801360.0 0.0 18050.0 4.0 0.0 4.0 36100.0 4.0 36100.0 4.0 36100.0 4.0 18050.0 4.0 36100.0 4.0 4.0 4.0 1657.0 1687.0 0.0 
36.0 0.0 4268.0 632795.0 4256.0 1863900.0 4116.0 1391845.0 4103.0 2470190.0 4241.0 -616835.0 4367.0 2812665.0 4207.0 -2782835.0 0.0 18050.0 4.0 0.0 4.0 36100.0 4.0 36100.0 4.0 36100.0 4.0 18050.0 4.0 36100.0 4.0 4.0 4.0 1661.0 1688.0 0.0 
37.0 0.0 4270.0 655975.0 4256.0 1859245.0 4116.0 1410370.0 4096.0 2419270.0 4228.0 -612180.0 4366.0 2817320.0 4208.0 -2778180.0 0.0 18050.0 4.0 0.0 4.0 36100.0 4.0 36100.0 4.0 36100.0 4.0 18050.0 4.0 36100.0 4.0 4.0 4.0 1664.0 1692.0 0.0 
38.0 0.0 4267.0 628140.0 4257.0 1845375.0 4129.0 1382535.0 4089.0 2400745.0 4230.0 -607525.0 4364.0 2761745.0 4199.0 -2764310.0 0.0 18050.0 4.0 0.0 4.0 36100.0 4.0 36100.0 4.0 36100.0 4.0 18050.0 4.0 36100.0 4.0 4.0 4.0 1668.0 1695.0 0.0 
39.0 0.0 4266.0 623485.0 4251.0 1868555.0 4134.0 1373320.0 4087.0 2423925.0 4231.0 -626050.0 4365.0 2761745.0 4204.0 -2736570.0 0.0 18050.0 4.0 0.0 4.0 36100.0 4.0 36100.0 4.0 36100.0 4.0 18050.0 4.0 36100.0 4.0 4.0 4.0 1669.0 1697.0 0.0 
40.0 0.0 4270.0 688370.0 4254.0 1933345.0 4129.0 1387190.0 4092.0 2456320.0 4225.0 -602965.0 4374.0 2817320.0 4213.0 -2755095.0 0.0 18050.0 4.0 0.0 4.0 36100.0 4.0 36100.0 4.0 36100.0 4.0 18050.0 4.0 36100.0 4.0 4.0 4.0 1671.0 1701.0 0.0 
41.0 0.0 4269.0 632795.0 4254.0 1896295.0 4124.0 1373320.0 4096.0 2465535.0 4224.0 -598310.0 4372.0 2766400.0 4203.0 -2884675.0 0.0 18050.0 4.0 0.0 4.0 36100.0 4.0 36100.0 4.0 36100.0 4.0 18050.0 4.0 36100.0 4.0 4.0 4.0 1672.0 1702.0 0.0 
42.0 0.0 4262.0 503215.0 4247.0 1812980.0 4115.0 1368665.0 4097.0 2414615.0 4219.0 -723235.0 4359.0 2659905.0 4189.0 -2991075.0 0.0 18050.0 4.0 0.0 4.0 36100.0 4.0 36100.0 4.0 36100.0 4.0 18050.0 4.0 36100.0 4.0 4.0 4.0 1673.0 1706.0 0.0 
43.0 0.0 4262.0 484690.0 4244.0 1808325.0 4109.0 1405715.0 4100.0 2359135.0 4207.0 -792680.0 4357.0 2650690.0 4187.0 -2991075.0 0.0 18050.0 4.0 0.0 4.0 36100.0 4.0 36100.0 4.0 36100.0 4.0 18050.0 4.0 36100.0 4.0 4.0 4.0 1675.0 1707.0 0.0 
44.0 0.0 4267.0 577220.0 4249.0 1831505.0 4113.0 1391845.0 4099.0 2345265.0 4203.0 -718675.0 4360.0 2687740.0 4186.0 -2940155.0 0.0 18050.0 4.0 0.0 4.0 36100.0 4.0 36100.0 4.0 36100.0 4.0 18050.0 4.0 36100.0 4.0 4.0 4.0 1674.0 1710.0 0.0 
45.0 0.0 4268.0 600400.0 4250.0 1822195.0 4119.0 1354795.0 4095.0 2359135.0 4206.0 -690840.0 4357.0 2678430.0 4184.0 -2926285.0 0.0 18050.0 4.0 0.0 4.0 36100.0 4.0 36100.0 4.0 36100.0 4.0 18050.0 4.0 36100.0 4.0 4.0 4.0 1675.0 1711.0 0.0 
46.0 0.0 4264.0 572660.0 4249.0 1850030.0 4120.0 1382535.0 4097.0 2377660.0 4208.0 -746415.0 4358.0 2673870.0 4184.0 -2949465.0 0.0 18050.0 4.0 0.0 4.0 36100.0 4.0 36100.0 4.0 36100.0 4.0 18050.0 4.0 36100.0 4.0 4.0 4.0 1674.0 1712.0 0.0 
47.0 0.0 4266.0 591090.0 4249.0 1863900.0 4124.0 1410370.0 4101.0 2382220.0 4206.0 -732545.0 4362.0 2636820.0 4178.0 -2995730.0 0.0 18050.0 4.0 0.0 4.0 36100.0 4.0 36100.0 4.0 36100.0 4.0 18050.0 4.0 36100.0 4.0 4.0 4.0 1673.0 1710.0 0.0 
48.0 0.0 4264.0 563350.0 4248.0 1789800.0 4128.0 1401060.0 4102.0 2391530.0 4205.0 -667755.0 4359.0 2576590.0 4179.0 -3004945.0 0.0 18050.0 4.0 0.0 4.0 36100.0 4.0 36100.0 4.0 36100.0 4.0 18050.0 4.0 36100.0 4.0 4.0 4.0 1672.0 1709.0 0.0 
49.0 0.0 4261.0 484690.0 4247.0 1697270.0 4117.0 1414930.0 4105.0 2400745.0 4207.0 -681625.0 4357.0 2585900.0 4184.0 -2995730.0 0.0 18050.0 4.0 0.0 4.0 36100.0 4.0 36100.0 4.0 36100.0 4.0 18050.0 4.0 36100.0 4.0 4.0 4.0 1672.0 1706.0 0.0 
50.0 0.0 4262.0 410590.0 4243.0 1632480.0 4101.0 1414930.0 4105.0 2377660.0 4207.0 -737200.0 4358.0 2599770.0 4179.0 -3014255.0 0.0 18050.0 4.0 0.0 4.0 36100.0 4.0 36100.0 4.0 36100.0 4.0 18050.0 4.0 36100.0 4.0 4.0 4.0 1670.0 1703.0 0.0 
51.0 0.0 4264.0 318060.0 4243.0 1623265.0 4095.0 1396405.0 4101.0 2340610.0 4206.0 -746415.0 4360.0 2595115.0 4179.0 -3000385.0 0.0 18050.0 4.0 0.0 4.0 36100.0 4.0 36100.0 4.0 36100.0 4.0 18050.0 4.0 36100.0 4.0 4.0 4.0 1669.0 1702.0 0.0 
52.0 0.0 4265.0 331930.0 4243.0 1711140.0 4104.0 1405715.0 4105.0 2289690.0 4198.0 -737200.0 4363.0 2622950.0 4186.0 -2963335.0 0.0 18050.0 4.0 0.0 4.0 36100.0 4.0 36100.0 4.0 36100.0 4.0 18050.0 4.0 36100.0 4.0 4.0 4.0 1668.0 1699.0 0.0 
53.0 0.0 4269.0 452295.0 4246.0 1775930.0 4112.0 1424240.0 4099.0 2197160.0 4184.0 -741760.0 4364.0 2627510.0 4183.0 -2963335.0 0.0 18050.0 4.0 0.0 4.0 36100.0 4.0 36100.0 4.0 36100.0 4.0 18050.0 4.0 36100.0 4.0 4.0 4.0 1664.0 1698.0 0.0 
54.0 0.0 4270.0 512430.0 4243.0 1757405.0 4117.0 1419585.0 4090.0 2164765.0 4182.0 -732545.0 4363.0 2525765.0 4183.0 -3004945.0 0.0 18050.0 4.0 0.0 4.0 36100.0 4.0 36100.0 4.0 36100.0 4.0 18050.0 4.0 36100.0 4.0 4.0 4.0 1663.0 1696.0 0.0 
55.0 0.0 4268.0 512430.0 4243.0 1743535.0 4123.0 1410370.0 4098.0 2261950.0 4201.0 -686280.0 4364.0 2423925.0 4193.0 -3014255.0 0.0 18050.0 4.0 0.0 4.0 36100.0 4.0 36100.0 4.0 36100.0 4.0 18050.0 4.0 36100.0 4.0 4.0 4.0 1660.0 1692.0 0.0 
56.0 0.0 4266.0 535610.0 4242.0 1743535.0 4119.0 1424240.0 4106.0 2386875.0 4218.0 -630705.0 4363.0 2400745.0 4197.0 -3023470.0 0.0 18050.0 4.0 0.0 4.0 36100.0 4.0 36100.0 4.0 36100.0 4.0 18050.0 4.0 36100.0 4.0 4.0 4.0 1658.0 1690.0 0.0 
57.0 0.0 4268.0 493905.0 4246.0 1725010.0 4110.0 1428800.0 4104.0 2447010.0 4217.0 -602965.0 4361.0 2437795.0 4196.0 -3055865.0 0.0 18050.0 4.0 0.0 4.0 36100.0 4.0 36100.0 4.0 36100.0 4.0 18050.0 4.0 36100.0 4.0 4.0 4.0 1654.0 1688.0 0.0 
58.0 0.0 4271.0 456950.0 4247.0 1715795.0 4106.0 1428800.0 4107.0 2460975.0 4216.0 -589095.0 4365.0 2525765.0 4202.0 -3037340.0 0.0 18050.0 4.0 0.0 4.0 36100.0 4.0 36100.0 4.0 36100.0 4.0 18050.0 4.0 36100.0 4.0 4.0 4.0 1653.0 1685.0 0.0 
59.0 0.0 4275.0 535610.0 4246.0 1766715.0 4107.0 1419585.0 4106.0 2460975.0 4227.0 -556700.0 4369.0 2608985.0 4207.0 -2940155.0 0.0 18050.0 4.0 0.0 4.0 36100.0 4.0 36100.0 4.0 36100.0 4.0 18050.0 4.0 36100.0 4.0 4.0 4.0 1650.0 1682.0 0.0 
60.0 0.0 4274.0 535610.0 4246.0 1785240.0 4102.0 1428800.0 4096.0 2396090.0 4218.0 -593655.0 4364.0 2562720.0 4206.0 -2903200.0 0.0 18050.0 4.0 0.0 4.0 36100.0 4.0 36100.0 4.0 36100.0 4.0 18050.0 4.0 36100.0 4.0 4.0 4.0 1648.0 1681.0 0.0 
61.0 0.0 4272.0 387505.0 4244.0 1697270.0 4092.0 1414930.0 4095.0 2303560.0 4194.0 -737200.0 4357.0 2437795.0 4199.0 -3004945.0 0.0 18050.0 4.0 0.0 4.0 36100.0 4.0 36100.0 4.0 36100.0 4.0 18050.0 4.0 36100.0 4.0 4.0 4.0 1643.0 1677.0 0.0 
62.0 0.0 4270.0 336585.0 4246.0 1618610.0 4090.0 1396405.0 4093.0 2247985.0 4192.0 -769595.0 4355.0 2419270.0 4189.0 -3060520.0 0.0 18050.0 4.0 0.0 4.0 36100.0 4.0 36100.0 4.0 36100.0 4.0 18050.0 4.0 36100.0 4.0 4.0 4.0 1641.0 1673.0 0.0 
63.0 0.0 4263.0 419900.0 4246.0 1655660.0 4103.0 1424240.0 4086.0 2187850.0 4195.0 -718675.0 4349.0 2423925.0 4187.0 -3060520.0 0.0 18050.0 4.0 0.0 4.0 36100.0 4.0 36100.0 4.0 36100.0 4.0 18050.0 4.0 36100.0 4.0 4.0 4.0 1638.0 1671.0 0.0 
64.0 0.0 4260.0 387505.0 4246.0 1655660.0 4110.0 1451980.0 4087.0 2173980.0 4188.0 -774155.0 4341.0 2331300.0 4190.0 3091395.0 44.0 18050.0 4.0 9025.0 4.0 36100.0 4.0 36100.0 4.0 36100.0 4.0 18050.0 4.0 36100.0 4.0 4.0 4.0 1637.0 1669.0 0.0 
65.0 0.0 4257.0 304190.0 4244.0 1623265.0 4106.0 1424240.0 4093.0 2275820.0 4196.0 -788025.0 4341.0 2280475.0 4186.0 3045035.0 488.0 18050.0 4.0 9025.0 4.0 36100.0 4.0 36100.0 4.0 36100.0 4.0 18050.0 4.0 36100.0 4.0 4.0 4.0 1635.0 1668.0 0.0 
66.0 0.0 4262.0 368980.0 4246.0 1697270.0 4105.0 1410370.0 4094.0 2303560.0 4200.0 -700150.0 4346.0 2368350.0 4182.0 3109825.0 257.0 18050.0 4.0 9025.0 4.0 36100.0 4.0 36100.0 4.0 36100.0 4.0 18050.0 4.0 36100.0 4.0 4.0 4.0 1635.0 1668.0 0.0 
67.0 0.0 4270.0 503215.0 4248.0 1771370.0 4111.0 1456635.0 4094.0 2234115.0 4188.0 -667755.0 4349.0 2474845.0 4193.0 -3032780.0 497.0 18050.0 4.0 9025.0 4.0 36100.0 4.0 36100.0 4.0 36100.0 4.0 18050.0 4.0 36100.0 4.0 4.0 4.0 1633.0 1668.0 0.0 
68.0 0.0 4276.0 507870.0 4253.0 1766715.0 4114.0 1465850.0 4096.0 2234115.0 4187.0 -658445.0 4353.0 2539635.0 4206.0 -2986515.0 477.0 18050.0 4.0 9025.0 4.0 36100.0 4.0 36100.0 4.0 36100.0 4.0 18050.0 4.0 36100.0 4.0 4.0 4.0 1633.0 1668.0 0.0 
69.0 0.0 4272.0 424555.0 4249.0 1752845.0 4109.0 1419585.0 4096.0 2289690.0 4197.0 -616835.0 4354.0 2548850.0 4207.0 -3009600.0 494.0 18050.0 4.0 9025.0 4.0 36100.0 4.0 36100.0 4.0 36100.0 4.0 18050.0 4.0 36100.0 4.0 4.0 4.0 1632.0 1668.0 0.0 
70.0 0.0 4266.0 322715.0 4245.0 1678745.0 4096.0 1401060.0 4093.0 2261950.0 4197.0 -630705.0 4349.0 2525765.0 4198.0 -3060520.0 502.0 18050.0 4.0 9025.0 4.0 36100.0 4.0 36100.0 4.0 36100.0 4.0 18050.0 4.0 36100.0 4.0 4.0 4.0 1631.0 1668.0 0.0 
71.0 0.0 4265.0 267140.0 4245.0 1613955.0 4086.0 1410370.0 4089.0 2192505.0 4190.0 -695495.0 4343.0 2493370.0 4193.0 -3092915.0 438.0 18050.0 4.0 9025.0 4.0 36100.0 4.0 36100.0 4.0 36100.0 4.0 18050.0 4.0 36100.0 4.0 4.0 4.0 1633.0 1667.0 0.0 
72.0 0.0 4267.0 341240.0 4246.0 1674090.0 4093.0 1410370.0 4089.0 2164765.0 4192.0 -663100.0 4346.0 2479405.0 4196.0 -3083700.0 447.0 18050.0 4.0 9025.0 4.0 36100.0 4.0 36100.0 4.0 36100.0 4.0 18050.0 4.0 36100.0 4.0 4.0 4.0 1631.0 1670.0 0.0 
73.0 0.0 4269.0 461510.0 4246.0 1711140.0 4109.0 1414930.0 4090.0 2132370.0 4192.0 -593655.0 4353.0 2507240.0 4203.0 -3083700.0 416.0 18050.0 4.0 9025.0 4.0 36100.0 4.0 36100.0 4.0 36100.0 4.0 18050.0 4.0 36100.0 4.0 4.0 4.0 1633.0 1668.0 0.0 
74.0 0.0 4273.0 517085.0 4251.0 1711140.0 4121.0 1447325.0 4091.0 2173980.0 4197.0 -598310.0 4355.0 2544195.0 4207.0 -3060520.0 433.0 18050.0 4.0 9025.0 4.0 36100.0 4.0 36100.0 4.0 36100.0 4.0 18050.0 4.0 36100.0 4.0 4.0 4.0 1632.0 1668.0 0.0 
75.0 0.0 4276.0 535610.0 4253.0 1748190.0 4123.0 1475160.0 4096.0 2317430.0 4214.0 -602965.0 4353.0 2558160.0 4210.0 -3009600.0 374.0 18050.0 4.0 9025.0 4.0 36100.0 4.0 36100.0 4.0 36100.0 4.0 18050.0 4.0 36100.0 4.0 4.0 4.0 1633.0 1669.0 0.0 
76.0 0.0 4276.0 540265.0 4249.0 1762060.0 4116.0 1461195.0 4098.0 2368350.0 4220.0 -561260.0 4353.0 2558160.0 4211.0 -2963335.0 240.0 18050.0 4.0 9025.0 4.0 36100.0 4.0 36100.0 4.0 36100.0 4.0 18050.0 4.0 36100.0 4.0 4.0 4.0 1633.0 1670.0 0.0 
77.0 0.0 4278.0 526300.0 4248.0 1725010.0 4106.0 1424240.0 4093.0 2271165.0 4206.0 -547390.0 4356.0 2581245.0 4209.0 -2944810.0 415.0 18050.0 4.0 9025.0 4.0 36100.0 4.0 36100.0 4.0 36100.0 4.0 18050.0 4.0 36100.0 4.0 4.0 4.0 1634.0 1669.0 0.0 
78.0 0.0 4282.0 554135.0 4247.0 1738975.0 4108.0 1428800.0 4093.0 2234115.0 4202.0 -579785.0 4356.0 2618295.0 4211.0 -2940155.0 433.0 18050.0 4.0 9025.0 4.0 36100.0 4.0 36100.0 4.0 36100.0 4.0 18050.0 4.0 36100.0 4.0 4.0 4.0 1635.0 1670.0 0.0 
79.0 0.0 4283.0 558695.0 4249.0 1748190.0 4111.0 1475160.0 4094.0 2252640.0 4209.0 -640015.0 4353.0 2595115.0 4209.0 -2930940.0 374.0 18050.0 4.0 9025.0 4.0 36100.0 4.0 36100.0 4.0 36100.0 4.0 18050.0 4.0 36100.0 4.0 4.0 4.0 1636.0 1672.0 0.0 
80.0 0.0 4278.0 470820.0 4249.0 1692615.0 4103.0 1451980.0 4089.0 2160110.0 4201.0 -709365.0 4349.0 2488715.0 4201.0 -2967990.0 240.0 18050.0 4.0 9025.0 4.0 36100.0 4.0 36100.0 4.0 36100.0 4.0 18050.0 4.0 36100.0 4.0 4.0 4.0 1636.0 1672.0 0.0 
81.0 0.0 4276.0 424555.0 4247.0 1664875.0 4102.0 1433455.0 4087.0 2113845.0 4191.0 -704805.0 4349.0 2437795.0 4197.0 -3009600.0 415.0 18050.0 4.0 9025.0 4.0 36100.0 4.0 36100.0 4.0 36100.0 4.0 18050.0 4.0 36100.0 4.0 4.0 4.0 1636.0 1675.0 0.0 
82.0 0.0 4275.0 456950.0 4245.0 1697270.0 4110.0 1470505.0 4091.0 2164765.0 4194.0 -676970.0 4346.0 2419270.0 4197.0 -3041995.0 433.0 18050.0 4.0 9025.0 4.0 36100.0 4.0 36100.0 4.0 36100.0 4.0 18050.0 4.0 36100.0 4.0 4.0 4.0 1636.0 1676.0 0.0 
83.0 0.0 4275.0 456950.0 4248.0 1697270.0 4108.0 1470505.0 4089.0 2141585.0 4195.0 -723235.0 4341.0 2368350.0 4190.0 -3092915.0 374.0 18050.0 4.0 9025.0 4.0 36100.0 4.0 36100.0 4.0 36100.0 4.0 18050.0 4.0 36100.0 4.0 4.0 4.0 1635.0 1679.0 0.0 
84.0 0.0 4276.0 475475.0 4245.0 1697270.0 4102.0 1461195.0 4086.0 2136930.0 4194.0 -686280.0 4338.0 2377660.0 4186.0 -3079045.0 240.0 18050.0 4.0 9025.0 4.0 36100.0 4.0 36100.0 4.0 36100.0 4.0 18050.0 4.0 36100.0 4.0 4.0 4.0 1636.0 1680.0 0.0 
85.0 0.0 4284.0 530955.0 4248.0 1748190.0 4108.0 1470505.0 4090.0 2261950.0 4202.0 -556700.0 4344.0 2493370.0 4197.0 -2940155.0 415.0 18050.0 4.0 9025.0 4.0 36100.0 4.0 36100.0 4.0 36100.0 4.0 18050.0 4.0 36100.0 4.0 4.0 4.0 1634.0 1683.0 0.0 
86.0 0.0 4288.0 535610.0 4249.0 1762060.0 4109.0 1465850.0 4092.0 2322085.0 4211.0 -552045.0 4351.0 2572030.0 4204.0 -2847625.0 433.0 18050.0 4.0 9025.0 4.0 36100.0 4.0 36100.0 4.0 36100.0 4.0 18050.0 4.0 36100.0 4.0 4.0 4.0 1633.0 1686.0 0.0 
87.0 0.0 4289.0 568005.0 4250.0 1757405.0 4107.0 1438110.0 4091.0 2298905.0 4208.0 -630705.0 4351.0 2585900.0 4202.0 -2838410.0 374.0 18050.0 4.0 9025.0 4.0 36100.0 4.0 36100.0 4.0 36100.0 4.0 18050.0 4.0 36100.0 4.0 4.0 4.0 1632.0 1688.0 0.0 
88.0 0.0 4290.0 665190.0 4248.0 1850030.0 4117.0 1451980.0 4092.0 2335955.0 4206.0 -602965.0 4349.0 2562720.0 4204.0 -2838410.0 240.0 18050.0 4.0 9025.0 4.0 36100.0 4.0 36100.0 4.0 36100.0 4.0 18050.0 4.0 36100.0 4.0 4.0 4.0 1630.0 1692.0 0.0 
89.0 0.0 4291.0 683715.0 4252.0 1905510.0 4123.0 1465850.0 4092.0 2326740.0 4211.0 -561260.0 4347.0 2516455.0 4207.0 -2875365.0 415.0 18050.0 4.0 9025.0 4.0 36100.0 4.0 36100.0 4.0 36100.0 4.0 18050.0 4.0 36100.0 4.0 4.0 4.0 1628.0 1695.0 0.0 
90.0 0.0 4291.0 632795.0 4246.0 1822195.0 4119.0 1428800.0 4092.0 2303560.0 4212.0 -598310.0 4349.0 2484060.0 4205.0 -2907760.0 433.0 18050.0 4.0 9025.0 4.0 36100.0 4.0 36100.0 4.0 36100.0 4.0 18050.0 4.0 36100.0 4.0 4.0 4.0 1626.0 1699.0 0.0 
91.0 0.0 4291.0 600400.0 4241.0 1748190.0 4119.0 1451980.0 4100.0 2410055.0 4209.0 -598310.0 4348.0 2442450.0 4198.0 -2903200.0 374.0 18050.0 4.0 9025.0 4.0 36100.0 4.0 36100.0 4.0 36100.0 4.0 18050.0 4.0 36100.0 4.0 4.0 4.0 1624.0 1701.0 0.0 
92.0 0.0 4291.0 549480.0 4246.0 1743535.0 4116.0 1512115.0 4108.0 2437795.0 4204.0 -579785.0 4343.0 2400745.0 4192.0 -2935595.0 240.0 18050.0 4.0 9025.0 4.0 36100.0 4.0 36100.0 4.0 36100.0 4.0 18050.0 4.0 36100.0 4.0 4.0 4.0 1622.0 1705.0 0.0 
93.0 0.0 4290.0 484690.0 4246.0 1711140.0 4103.0 1489030.0 4104.0 2326740.0 4201.0 -672410.0 4339.0 2382220.0 4190.0 -2958680.0 415.0 18050.0 4.0 9025.0 4.0 36100.0 4.0 36100.0 4.0 36100.0 4.0 18050.0 4.0 36100.0 4.0 4.0 4.0 1621.0 1706.0 0.0 
94.0 0.0 4287.0 433770.0 4246.0 1637135.0 4092.0 1414930.0 4101.0 2331300.0 4207.0 -732545.0 4341.0 2345265.0 4192.0 -2926285.0 433.0 18050.0 4.0 9025.0 4.0 36100.0 4.0 36100.0 4.0 36100.0 4.0 18050.0 4.0 36100.0 4.0 4.0 4.0 1619.0 1710.0 0.0 
95.0 0.0 4280.0 438425.0 4248.0 1618610.0 4099.0 1405715.0 4103.0 2405400.0 4214.0 -686280.0 4342.0 2308215.0 4190.0 -2949465.0 374.0 18050.0 4.0 9025.0 4.0 36100.0 4.0 36100.0 4.0 36100.0 4.0 18050.0 4.0 36100.0 4.0 4.0 4.0 1621.0 1710.0 0.0 
96.0 0.0 4282.0 466165.0 4252.0 1674090.0 4107.0 1419585.0 4102.0 2340610.0 4207.0 -667755.0 4342.0 2340610.0 4190.0 -2967990.0 240.0 18050.0 4.0 9025.0 4.0 36100.0 4.0 36100.0 4.0 36100.0 4.0 18050.0 4.0 36100.0 4.0 4.0 4.0 1621.0 1709.0 0.0 
97.0 0.0 4288.0 461510.0 4247.0 1706485.0 4105.0 1428800.0 4101.0 2271165.0 4202.0 -672410.0 4344.0 2373005.0 4195.0 -2921630.0 415.0 18050.0 4.0 9025.0 4.0 36100.0 4.0 36100.0 4.0 36100.0 4.0 18050.0 4.0 36100.0 4.0 4.0 4.0 1623.0 1708.0 0.0 
98.0 0.0 4288.0 415245.0 4249.0 1669530.0 4103.0 1461195.0 4105.0 2317430.0 4206.0 -644575.0 4341.0 2349825.0 4192.0 -2930940.0 433.0 18050.0 4.0 9025.0 4.0 36100.0 4.0 36100.0 4.0 36100.0 4.0 18050.0 4.0 36100.0 4.0 4.0 4.0 1624.0 1705.0 0.0 
99.0 0.0 4286.0 438425.0 4252.0 1701925.0 4109.0 1479720.0 4111.0 2349825.0 4204.0 -630705.0 4339.0 2368350.0 4190.0 -2963335.0 374.0 18050.0 4.0 9025.0 4.0 36100.0 4.0 36100.0 4.0 36100.0 4.0 18050.0 4.0 36100.0 4.0 4.0 4.0 1626.0 1703.0 0.0 
100.0 0.0 4298.0 568005.0 4257.0 1831505.0 4111.0 1484375.0 4109.0 2345265.0 4207.0 -570570.0 4352.0 2521110.0 4206.0 -2852280.0 240.0 18050.0 4.0 9025.0 4.0 36100.0 4.0 36100.0 4.0 36100.0 4.0 18050.0 4.0 36100.0 4.0 4.0 4.0 1630.0 1699.0 0.0 
101.0 0.0 4307.0 614270.0 4255.0 1877770.0 4105.0 1498245.0 4106.0 2410055.0 4231.0 -477945.0 4360.0 2655345.0 4221.0 -2741130.0 415.0 18050.0 4.0 9025.0 4.0 36100.0 4.0 36100.0 4.0 36100.0 4.0 18050.0 4.0 36100.0 4.0 4.0 4.0 1631.0 1698.0 0.0 
102.0 0.0 4304.0 544825.0 4250.0 1794455.0 4101.0 1461195.0 4103.0 2456320.0 4244.0 -468730.0 4356.0 2650690.0 4219.0 -2768965.0 433.0 18050.0 4.0 9025.0 4.0 36100.0 4.0 36100.0 4.0 36100.0 4.0 18050.0 4.0 36100.0 4.0 4.0 4.0 1635.0 1694.0 0.0 
103.0 0.0 4301.0 558695.0 4251.0 1766715.0 4101.0 1433455.0 4096.0 2363695.0 4232.0 -440990.0 4354.0 2618295.0 4216.0 -2819885.0 374.0 18050.0 4.0 9025.0 4.0 36100.0 4.0 36100.0 4.0 36100.0 4.0 18050.0 4.0 36100.0 4.0 4.0 4.0 1636.0 1693.0 0.0 
104.0 0.0 4305.0 646665.0 4256.0 1854590.0 4112.0 1447325.0 4091.0 2280475.0 4217.0 -413155.0 4356.0 2585900.0 4217.0 -2824445.0 240.0 18050.0 4.0 9025.0 4.0 36100.0 4.0 36100.0 4.0 36100.0 4.0 18050.0 4.0 36100.0 4.0 4.0 4.0 1639.0 1690.0 0.0 
105.0 0.0 4307.0 646665.0 4250.0 1891640.0 4122.0 1447325.0 4091.0 2289690.0 4211.0 -505780.0 4348.0 2502585.0 4210.0 -2861495.0 415.0 18050.0 4.0 9025.0 4.0 36100.0 4.0 36100.0 4.0 36100.0 4.0 18050.0 4.0 36100.0 4.0 4.0 4.0 1640.0 1688.0 0.0 
106.0 0.0 4304.0 591090.0 4249.0 1840720.0 4114.0 1433455.0 4092.0 2257295.0 4208.0 -607525.0 4338.0 2433140.0 4199.0 -2912415.0 433.0 18050.0 4.0 9025.0 4.0 36100.0 4.0 36100.0 4.0 36100.0 4.0 18050.0 4.0 36100.0 4.0 4.0 4.0 1644.0 1685.0 0.0 
107.0 0.0 4296.0 540265.0 4252.0 1743535.0 4106.0 1424240.0 4093.0 2211030.0 4208.0 -621490.0 4333.0 2377660.0 4191.0 -2981860.0 374.0 18050.0 4.0 9025.0 4.0 36100.0 4.0 36100.0 4.0 36100.0 4.0 18050.0 4.0 36100.0 4.0 4.0 4.0 1645.0 1683.0 0.0 
108.0 0.0 4294.0 470820.0 4247.0 1688055.0 4113.0 1419585.0 4094.0 2252640.0 4207.0 -612180.0 4333.0 2354480.0 4191.0 -3023470.0 240.0 18050.0 4.0 9025.0 4.0 36100.0 4.0 36100.0 4.0 36100.0 4.0 18050.0 4.0 36100.0 4.0 4.0 4.0 1647.0 1681.0 0.0 
109.0 0.0 4302.0 456950.0 4245.0 1711140.0 4118.0 1414930.0 4096.0 2280475.0 4208.0 -644575.0 4338.0 2423925.0 4193.0 -2995730.0 415.0 18050.0 4.0 9025.0 4.0 36100.0 4.0 36100.0 4.0 36100.0 4.0 18050.0 4.0 36100.0 4.0 4.0 4.0 1648.0 1678.0 0.0 
110.0 0.0 4304.0 461510.0 4247.0 1697270.0 4112.0 1414930.0 4098.0 2285035.0 4216.0 -700150.0 4340.0 2484060.0 4189.0 -2981860.0 433.0 18050.0 4.0 9025.0 4.0 36100.0 4.0 36100.0 4.0 36100.0 4.0 18050.0 4.0 36100.0 4.0 4.0 4.0 1649.0 1677.0 0.0 
111.0 0.0 4302.0 489345.0 4247.0 1692615.0 4109.0 1414930.0 4097.0 2322085.0 4219.0 -681625.0 4339.0 2470190.0 4188.0 -3014255.0 374.0 18050.0 4.0 9025.0 4.0 36100.0 4.0 36100.0 4.0 36100.0 4.0 18050.0 4.0 36100.0 4.0 4.0 4.0 1650.0 1675.0 0.0 
112.0 0.0 4305.0 572660.0 4246.0 1775930.0 4114.0 1433455.0 4096.0 2349825.0 4214.0 -616835.0 4343.0 2525765.0 4197.0 -3004945.0 240.0 18050.0 4.0 9025.0 4.0 36100.0 4.0 36100.0 4.0 36100.0 4.0 18050.0 4.0 36100.0 4.0 4.0 4.0 1651.0 1674.0 0.0 
113.0 0.0 4311.0 572660.0 4249.0 1826850.0 4112.0 1451980.0 4099.0 2363695.0 4211.0 -644575.0 4347.0 2632165.0 4206.0 -2944810.0 415.0 18050.0 4.0 9025.0 4.0 36100.0 4.0 36100.0 4.0 36100.0 4.0 18050.0 4.0 36100.0 4.0 4.0 4.0 1651.0 1673.0 0.0 
114.0 0.0 4306.0 480035.0 4245.0 1752845.0 4105.0 1405715.0 4095.0 2345265.0 4210.0 -723235.0 4343.0 2618295.0 4200.0 -2981860.0 433.0 18050.0 4.0 9025.0 4.0 36100.0 4.0 36100.0 4.0 36100.0 4.0 18050.0 4.0 36100.0 4.0 4.0 4.0 1650.0 1671.0 0.0 
115.0 0.0 4305.0 461510.0 4245.0 1725010.0 4107.0 1391845.0 4090.0 2317430.0 4214.0 -681625.0 4342.0 2608985.0 4196.0 -3055865.0 374.0 18050.0 4.0 9025.0 4.0 36100.0 4.0 36100.0 4.0 36100.0 4.0 18050.0 4.0 36100.0 4.0 4.0 4.0 1651.0 1670.0 0.0 
116.0 0.0 4310.0 554135.0 4244.0 1808325.0 4119.0 1456635.0 4099.0 2382220.0 4226.0 -602965.0 4349.0 2720135.0 4205.0 -3037340.0 240.0 18050.0 4.0 9025.0 4.0 36100.0 4.0 36100.0 4.0 36100.0 4.0 18050.0 4.0 36100.0 4.0 4.0 4.0 1649.0 1671.0 0.0 
117.0 0.0 4312.0 568005.0 4245.0 1817635.0 4119.0 1489030.0 4104.0 2405400.0 4228.0 -607525.0 4350.0 2761745.0 4208.0 -2986515.0 415.0 18050.0 4.0 9025.0 4.0 36100.0 4.0 36100.0 4.0 36100.0 4.0 18050.0 4.0 36100.0 4.0 4.0 4.0 1649.0 1670.0 0.0 
118.0 0.0 4308.0 480035.0 4242.0 1734320.0 4114.0 1442765.0 4094.0 2285035.0 4214.0 -616835.0 4344.0 2673870.0 4205.0 -3041995.0 433.0 18050.0 4.0 9025.0 4.0 36100.0 4.0 36100.0 4.0 36100.0 4.0 18050.0 4.0 36100.0 4.0 4.0 4.0 1647.0 1671.0 0.0 
119.0 0.0 4309.0 470820.0 4242.0 1715795.0 4118.0 1447325.0 4091.0 2266510.0 4214.0 -593655.0 4345.0 2673870.0 4212.0 -3055865.0 374.0 18050.0 4.0 9025.0 4.0 36100.0 4.0 36100.0 4.0 36100.0 4.0 18050.0 4.0 36100.0 4.0 4.0 4.0 1648.0 1670.0 0.0 
120.0 0.0 4311.0 568005.0 4240.0 1812980.0 4125.0 1489030.0 4097.0 2373005.0 4227.0 -565915.0 4353.0 2789485.0 4220.0 -2949465.0 240.0 18050.0 4.0 9025.0 4.0 36100.0 4.0 36100.0 4.0 36100.0 4.0 18050.0 4.0 36100.0 4.0 4.0 4.0 1646.0 1671.0 0.0 
121.0 0.0 4312.0 618925.0 4242.0 1868555.0 4124.0 1470505.0 4099.0 2345265.0 4225.0 -542735.0 4355.0 2826535.0 4218.0 -2889235.0 415.0 18050.0 4.0 9025.0 4.0 36100.0 4.0 36100.0 4.0 36100.0 4.0 18050.0 4.0 36100.0 4.0 4.0 4.0 1645.0 1670.0 0.0 
122.0 0.0 4312.0 577220.0 4244.0 1831505.0 4126.0 1456635.0 4094.0 2261950.0 4216.0 -528865.0 4347.0 2743220.0 4217.0 -2935595.0 433.0 18050.0 4.0 9025.0 4.0 36100.0 4.0 36100.0 4.0 36100.0 4.0 18050.0 4.0 36100.0 4.0 4.0 4.0 1644.0 1671.0 0.0 
123.0 0.0 4310.0 544825.0 4244.0 1789800.0 4134.0 1465850.0 4093.0 2289690.0 4222.0 -552045.0 4341.0 2664560.0 4217.0 -2977205.0 374.0 18050.0 4.0 9025.0 4.0 36100.0 4.0 36100.0 4.0 36100.0 4.0 18050.0 4.0 36100.0 4.0 4.0 4.0 1644.0 1669.0 0.0 
124.0 0.0 4310.0 544825.0 4247.0 1775930.0 4134.0 1438110.0 4092.0 2308215.0 4224.0 -602965.0 4336.0 2622950.0 4208.0 -3018910.0 240.0 18050.0 4.0 9025.0 4.0 36100.0 4.0 36100.0 4.0 36100.0 4.0 18050.0 4.0 36100.0 4.0 4.0 4.0 1642.0 1670.0 0.0 
125.0 0.0 4309.0 577220.0 4251.0 1766715.0 4123.0 1401060.0 4085.0 2252640.0 4210.0 -653885.0 4333.0 2576590.0 4199.0 -3069735.0 415.0 18050.0 4.0 9025.0 4.0 36100.0 4.0 36100.0 4.0 36100.0 4.0 18050.0 4.0 36100.0 4.0 4.0 4.0 1642.0 1670.0 0.0 
126.0 0.0 4307.0 586530.0 4249.0 1748190.0 4122.0 1405715.0 4080.0 2224900.0 4207.0 -686280.0 4335.0 2558160.0 4201.0 -3069735.0 433.0 18050.0 4.0 9025.0 4.0 36100.0 4.0 36100.0 4.0 36100.0 4.0 18050.0 4.0 36100.0 4.0 4.0 4.0 1639.0 1670.0 0.0 
127.0 0.0 4304.0 577220.0 4246.0 1762060.0 4123.0 1447325.0 4086.0 2224900.0 4213.0 -681625.0 4336.0 2590555.0 4203.0 -3051305.0 374.0 18050.0 4.0 9025.0 4.0 36100.0 4.0 36100.0 4.0 36100.0 4.0 18050.0 4.0 36100.0 4.0 4.0 4.0 1640.0 1671.0 0.0 
128.0 0.0 4307.0 586530.0 4251.0 1780585.0 4117.0 1461195.0 4092.0 2234115.0 4212.0 -681625.0 4332.0 2622950.0 4196.0 -3037340.0 240.0 18050.0 4.0 18050.0 4.0 36100.0 4.0 36100.0 4.0 36100.0 4.0 18050.0 4.0 36100.0 4.0 4.0 4.0 1639.0 1671.0 0.0 
0.0 0.0 4308.0 535610.0 4250.0 1748190.0 4111.0 1419585.0 4091.0 2243425.0 4205.0 -727890.0 4330.0 2599770.0 4190.0 -3041995.0 46.0 18050.0 4.0 9025.0 4.0 36100.0 4.0 36100.0 4.0 36100.0 4.0 18050.0 4.0 36100.0 4.0 4.0 4.0 1636.0 1674.0 0.0 
1.0 0.0 4309.0 470820.0 4252.0 1729665.0 4112.0 1396405.0 4090.0 2197160.0 4201.0 -755630.0 4335.0 2604425.0 4197.0 -3041995.0 488.0 18050.0 4.0 9025.0 4.0 36100.0 4.0 36100.0 4.0 36100.0 4.0 18050.0 4.0 36100.0 4.0 4.0 4.0 1637.0 1675.0 0.0 
2.0 0.0 4309.0 554135.0 4252.0 1799110.0 4119.0 1410370.0 4092.0 2201720.0 4204.0 -723235.0 4339.0 2622950.0 4207.0 -3023470.0 255.0 18050.0 4.0 9025.0 4.0 36100.0 4.0 36100.0 4.0 36100.0 4.0 18050.0 4.0 36100.0 4.0 4.0 4.0 1635.0 1676.0 0.0 
3.0 0.0 4311.0 646665.0 4255.0 1840720.0 4123.0 1419585.0 4091.0 2271165.0 4208.0 -681625.0 4340.0 2618295.0 4206.0 -2991075.0 497.0 18050.0 4.0 9025.0 4.0 36100.0 4.0 36100.0 4.0 36100.0 4.0 18050.0 4.0 36100.0 4.0 4.0 4.0 1633.0 1678.0 0.0 
4.0 0.0 4311.0 628140.0 4256.0 1789800.0 4121.0 1414930.0 4088.0 2289690.0 4211.0 -640015.0 4340.0 2627510.0 4206.0 -2958680.0 477.0 18050.0 4.0 9025.0 4.0 36100.0 4.0 36100.0 4.0 36100.0 4.0 18050.0 4.0 36100.0 4.0 4.0 4.0 1631.0 1680.0 0.0 
5.0 0.0 4310.0 628140.0 4257.0 1766715.0 4121.0 1419585.0 4087.0 2243425.0 4212.0 -621490.0 4342.0 2646035.0 4207.0 -2935595.0 494.0 18050.0 4.0 9025.0 4.0 36100.0 4.0 36100.0 4.0 36100.0 4.0 18050.0 4.0 36100.0 4.0 4.0 4.0 1630.0 1681.0 0.0 
6.0 0.0 4308.0 614270.0 4254.0 1780585.0 4121.0 1428800.0 4088.0 2220245.0 4209.0 -658445.0 4342.0 2590555.0 4197.0 -2995730.0 502.0 18050.0 4.0 9025.0 4.0 36100.0 4.0 36100.0 4.0 36100.0 4.0 18050.0 4.0 36100.0 4.0 4.0 4.0 1627.0 1684.0 0.0 
7.0 0.0 4309.0 563350.0 4256.0 1762060.0 4121.0 1438110.0 4083.0 2206375.0 4209.0 -704805.0 4337.0 2544195.0 4194.0 -3041995.0 438.0 18050.0 4.0 9025.0 4.0 36100.0 4.0 36100.0 4.0 36100.0 4.0 18050.0 4.0 36100.0 4.0 4.0 4.0 1627.0 1685.0 0.0 
8.0 0.0 4311.0 609615.0 4257.0 1757405.0 4122.0 1451980.0 4080.0 2197160.0 4213.0 -653885.0 4339.0 2576590.0 4208.0 -2977205.0 447.0 18050.0 4.0 9025.0 4.0 36100.0 4.0 36100.0 4.0 36100.0 4.0 18050.0 4.0 36100.0 4.0 4.0 4.0 1624.0 1686.0 0.0 
9.0 0.0 4313.0 688370.0 4258.0 1803765.0 4123.0 1461195.0 4087.0 2243425.0 4214.0 -570570.0 4344.0 2618295.0 4219.0 -2842970.0 416.0 18050.0 4.0 9025.0 4.0 36100.0 4.0 36100.0 4.0 36100.0 4.0 18050.0 4.0 36100.0 4.0 4.0 4.0 1624.0 1687.0 0.0 
10.0 0.0 4315.0 679060.0 4261.0 1826850.0 4127.0 1442765.0 4093.0 2331300.0 4223.0 -556700.0 4344.0 2618295.0 4219.0 -2722700.0 433.0 18050.0 4.0 9025.0 4.0 36100.0 4.0 36100.0 4.0 36100.0 4.0 18050.0 4.0 36100.0 4.0 4.0 4.0 1624.0 1687.0 0.0 
11.0 0.0 4314.0 637450.0 4261.0 1799110.0 4131.0 1451980.0 4092.0 2349825.0 4229.0 -570570.0 4343.0 2572030.0 4218.0 -2657910.0 374.0 18050.0 4.0 9025.0 4.0 36100.0 4.0 36100.0 4.0 36100.0 4.0 18050.0 4.0 36100.0 4.0 4.0 4.0 1623.0 1689.0 0.0 
12.0 0.0 4309.0 605055.0 4261.0 1729665.0 4126.0 1456635.0 4091.0 2211030.0 4207.0 -565915.0 4343.0 2511800.0 4209.0 -2680995.0 241.0 18050.0 4.0 9025.0 4.0 36100.0 4.0 36100.0 4.0 36100.0 4.0 18050.0 4.0 36100.0 4.0 4.0 4.0 1624.0 1688.0 0.0 
13.0 0.0 4307.0 586530.0 4263.0 1692615.0 4121.0 1424240.0 4090.0 2099975.0 4185.0 -584440.0 4343.0 2488715.0 4204.0 -2750440.0 415.0 18050.0 4.0 9025.0 4.0 36100.0 4.0 36100.0 4.0 36100.0 4.0 18050.0 4.0 36100.0 4.0 4.0 4.0 1623.0 1689.0 0.0 
14.0 0.0 4310.0 595745.0 4264.0 1752845.0 4122.0 1414930.0 4091.0 2155455.0 4191.0 -612180.0 4342.0 2548850.0 4213.0 -2773525.0 433.0 18050.0 4.0 9025.0 4.0 36100.0 4.0 36100.0 4.0 36100.0 4.0 18050.0 4.0 36100.0 4.0 4.0 4.0 1623.0 1688.0 0.0 
15.0 0.0 4312.0 637450.0 4263.0 1859245.0 4122.0 1419585.0 4091.0 2243425.0 4206.0 -579785.0 4345.0 2604425.0 4222.0 -2750440.0 374.0 18050.0 4.0 9025.0 4.0 36100.0 4.0 36100.0 4.0 36100.0 4.0 18050.0 4.0 36100.0 4.0 4.0 4.0 1624.0 1687.0 0.0 
16.0 0.0 4316.0 688370.0 4265.0 1891640.0 4122.0 1391845.0 4091.0 2317430.0 4216.0 -514995.0 4356.0 2678430.0 4225.0 -2667125.0 0.0 18050.0 4.0 9025.0 4.0 36100.0 4.0 36100.0 4.0 36100.0 4.0 18050.0 4.0 36100.0 4.0 4.0 4.0 1624.0 1686.0 0.0 
17.0 0.0 4315.0 651320.0 4262.0 1868555.0 4121.0 1424240.0 4097.0 2405400.0 4218.0 -533520.0 4361.0 2734005.0 4222.0 -2625515.0 0.0 18050.0 4.0 9025.0 4.0 36100.0 4.0 36100.0 4.0 36100.0 4.0 18050.0 4.0 36100.0 4.0 4.0 4.0 1624.0 1685.0 0.0 
18.0 0.0 4309.0 530955.0 4261.0 1826850.0 4116.0 1447325.0 4101.0 2405400.0 4214.0 -602965.0 4354.0 2687740.0 4214.0 -2680995.0 0.0 18050.0 4.0 9025.0 4.0 36100.0 4.0 36100.0 4.0 36100.0 4.0 18050.0 4.0 36100.0 4.0 4.0 4.0 1625.0 1682.0 0.0 
19.0 0.0 4305.0 475475.0 4257.0 1743535.0 4113.0 1410370.0 4094.0 2349825.0 4214.0 -630705.0 4350.0 2613640.0 4210.0 -2745785.0 0.0 18050.0 4.0 9025.0 4.0 36100.0 4.0 36100.0 4.0 36100.0 4.0 18050.0 4.0 36100.0 4.0 4.0 4.0 1625.0 1680.0 0.0 
20.0 0.0 4304.0 429115.0 4255.0 1646350.0 4108.0 1401060.0 4099.0 2391530.0 4214.0 -686280.0 4352.0 2595115.0 4205.0 -2773525.0 0.0 18050.0 4.0 9025.0 4.0 36100.0 4.0 36100.0 4.0 36100.0 4.0 18050.0 4.0 36100.0 4.0 4.0 4.0 1627.0 1678.0 0.0 
21.0 0.0 4307.0 387505.0 4253.0 1660220.0 4106.0 1433455.0 4107.0 2419270.0 4212.0 -732545.0 4349.0 2608985.0 4203.0 -2764310.0 0.0 18050.0 4.0 9025.0 4.0 36100.0 4.0 36100.0 4.0 36100.0 4.0 18050.0 4.0 36100.0 4.0 4.0 4.0 1628.0 1674.0 0.0 
22.0 0.0 4317.0 466165.0 4257.0 1771370.0 4114.0 1442765.0 4094.0 2308215.0 4213.0 -644575.0 4350.0 2608985.0 4208.0 -2704175.0 0.0 18050.0 4.0 9025.0 4.0 36100.0 4.0 36100.0 4.0 36100.0 4.0 18050.0 4.0 36100.0 4.0 4.0 4.0 1628.0 1674.0 0.0 
23.0 0.0 4321.0 581875.0 4258.0 1840720.0 4123.0 1433455.0 4084.0 2261950.0 4218.0 -547390.0 4355.0 2627510.0 4212.0 -2685650.0 0.0 18050.0 4.0 9025.0 4.0 36100.0 4.0 36100.0 4.0 36100.0 4.0 18050.0 4.0 36100.0 4.0 4.0 4.0 1630.0 1671.0 0.0 
24.0 0.0 4319.0 605055.0 4256.0 1840720.0 4123.0 1428800.0 4099.0 2373005.0 4223.0 -552045.0 4354.0 2659905.0 4212.0 -2713390.0 0.0 18050.0 4.0 9025.0 4.0 36100.0 4.0 36100.0 4.0 36100.0 4.0 18050.0 4.0 36100.0 4.0 4.0 4.0 1630.0 1671.0 0.0 
25.0 0.0 4320.0 605055.0 4255.0 1836160.0 4121.0 1442765.0 4111.0 2423925.0 4227.0 -528865.0 4355.0 2687740.0 4217.0 -2680995.0 0.0 18050.0 4.0 9025.0 4.0 36100.0 4.0 36100.0 4.0 36100.0 4.0 18050.0 4.0 36100.0 4.0 4.0 4.0 1631.0 1670.0 0.0 
26.0 0.0 4320.0 609615.0 4258.0 1799110.0 4121.0 1470505.0 4108.0 2437795.0 4235.0 -450205.0 4364.0 2734005.0 4228.0 -2611550.0 0.0 18050.0 4.0 9025.0 4.0 36100.0 4.0 36100.0 4.0 36100.0 4.0 18050.0 4.0 36100.0 4.0 4.0 4.0 1632.0 1670.0 0.0 
27.0 0.0 4315.0 563350.0 4261.0 1748190.0 4124.0 1489030.0 4109.0 2497930.0 4238.0 -417810.0 4365.0 2729350.0 4230.0 -2671780.0 0.0 18050.0 4.0 9025.0 4.0 36100.0 4.0 36100.0 4.0 36100.0 4.0 18050.0 4.0 36100.0 4.0 4.0 4.0 1633.0 1669.0 0.0 
28.0 0.0 4310.0 493905.0 4258.0 1738975.0 4121.0 1502900.0 4112.0 2488715.0 4231.0 -477945.0 4358.0 2636820.0 4221.0 -2792050.0 0.0 18050.0 4.0 9025.0 4.0 36100.0 4.0 36100.0 4.0 36100.0 4.0 18050.0 4.0 36100.0 4.0 4.0 4.0 1634.0 1669.0 0.0 
29.0 0.0 4312.0 498560.0 4257.0 1752845.0 4116.0 1489030.0 4111.0 2451665.0 4230.0 -538175.0 4354.0 2604425.0 4214.0 -2796705.0 0.0 18050.0 4.0 9025.0 4.0 36100.0 4.0 36100.0 4.0 36100.0 4.0 18050.0 4.0 36100.0 4.0 4.0 4.0 1635.0 1670.0 0.0 
30.0 0.0 4311.0 554135.0 4257.0 1766715.0 4116.0 1456635.0 4105.0 2423925.0 4230.0 -528865.0 4354.0 2659905.0 4214.0 -2741130.0 0.0 18050.0 4.0 9025.0 4.0 36100.0 4.0 36100.0 4.0 36100.0 4.0 18050.0 4.0 36100.0 4.0 4.0 4.0 1636.0 1670.0 0.0 
31.0 0.0 4314.0 535610.0 4260.0 1762060.0 4113.0 1424240.0 4096.0 2340610.0 4219.0 -533520.0 4354.0 2678430.0 4217.0 -2745785.0 0.0 18050.0 4.0 9025.0 4.0 36100.0 4.0 36100.0 4.0 36100.0 4.0 18050.0 4.0 36100.0 4.0 4.0 4.0 1637.0 1671.0 0.0 
32.0 0.0 4319.0 466165.0 4261.0 1743535.0 4110.0 1401060.0 4096.0 2331300.0 4219.0 -612180.0 4353.0 2696955.0 4216.0 -2745785.0 0.0 18050.0 4.0 9025.0 4.0 36100.0 4.0 36100.0 4.0 36100.0 4.0 18050.0 4.0 36100.0 4.0 4.0 4.0 1638.0 1670.0 0.0 
33.0 0.0 4322.0 461510.0 4263.0 1725010.0 4109.0 1419585.0 4102.0 2345265.0 4222.0 -616835.0 4356.0 2761745.0 4217.0 -2685650.0 0.0 18050.0 4.0 9025.0 4.0 36100.0 4.0 36100.0 4.0 36100.0 4.0 18050.0 4.0 36100.0 4.0 4.0 4.0 1638.0 1672.0 0.0 
34.0 0.0 4318.0 498560.0 4260.0 1734320.0 4106.0 1461195.0 4102.0 2271165.0 4212.0 -538175.0 4356.0 2761745.0 4222.0 -2699520.0 0.0 18050.0 4.0 9025.0 4.0 36100.0 4.0 36100.0 4.0 36100.0 4.0 18050.0 4.0 36100.0 4.0 4.0 4.0 1641.0 1671.0 0.0 
35.0 0.0 4320.0 512430.0 4262.0 1757405.0 4110.0 1475160.0 4105.0 2275820.0 4211.0 -487255.0 4357.0 2734005.0 4226.0 -2708735.0 0.0 18050.0 4.0 9025.0 4.0 36100.0 4.0 36100.0 4.0 36100.0 4.0 18050.0 4.0 36100.0 4.0 4.0 4.0 1640.0 1672.0 0.0 
36.0 0.0 4319.0 484690.0 4261.0 1757405.0 4118.0 1428800.0 4111.0 2373005.0 4223.0 -491910.0 4357.0 2734005.0 4222.0 -2680995.0 0.0 18050.0 4.0 9025.0 4.0 36100.0 4.0 36100.0 4.0 36100.0 4.0 18050.0 4.0 36100.0 4.0 4.0 4.0 1642.0 1672.0 0.0 
37.0 0.0 4319.0 461510.0 4258.0 1720450.0 4111.0 1396405.0 4107.0 2354480.0 4221.0 -524305.0 4356.0 2747875.0 4216.0 -2671780.0 0.0 18050.0 4.0 9025.0 4.0 36100.0 4.0 36100.0 4.0 36100.0 4.0 18050.0 4.0 36100.0 4.0 4.0 4.0 1643.0 1672.0 0.0 
38.0 0.0 4323.0 470820.0 4257.0 1701925.0 4101.0 1396405.0 4102.0 2280475.0 4212.0 -547390.0 4354.0 2734005.0 4217.0 -2685650.0 0.0 18050.0 4.0 9025.0 4.0 36100.0 4.0 36100.0 4.0 36100.0 4.0 18050.0 4.0 36100.0 4.0 4.0 4.0 1644.0 1673.0 0.0 
39.0 0.0 4329.0 461510.0 4258.0 1715795.0 4103.0 1391845.0 4102.0 2252640.0 4211.0 -538175.0 4349.0 2687740.0 4217.0 -2685650.0 0.0 18050.0 4.0 9025.0 4.0 36100.0 4.0 36100.0 4.0 36100.0 4.0 18050.0 4.0 36100.0 4.0 4.0 4.0 1644.0 1672.0 0.0 
40.0 0.0 4326.0 452295.0 4254.0 1734320.0 4110.0 1396405.0 4099.0 2261950.0 4216.0 -505780.0 4349.0 2627510.0 4217.0 -2722700.0 0.0 18050.0 4.0 9025.0 4.0 36100.0 4.0 36100.0 4.0 36100.0 4.0 18050.0 4.0 36100.0 4.0 4.0 4.0 1644.0 1672.0 0.0 
41.0 0.0 4321.0 461510.0 4255.0 1725010.0 4116.0 1405715.0 4096.0 2289690.0 4223.0 -501125.0 4353.0 2595115.0 4221.0 -2764310.0 0.0 18050.0 4.0 9025.0 4.0 36100.0 4.0 36100.0 4.0 36100.0 4.0 18050.0 4.0 36100.0 4.0 4.0 4.0 1645.0 1671.0 0.0 
42.0 0.0 4318.0 438425.0 4254.0 1669530.0 4113.0 1387190.0 4091.0 2247985.0 4217.0 -542735.0 4351.0 2539635.0 4220.0 -2787490.0 0.0 18050.0 4.0 9025.0 4.0 36100.0 4.0 36100.0 4.0 36100.0 4.0 18050.0 4.0 36100.0 4.0 4.0 4.0 1646.0 1670.0 0.0 
43.0 0.0 4319.0 419900.0 4247.0 1637135.0 4102.0 1387190.0 4087.0 2192505.0 4206.0 -589095.0 4345.0 2502585.0 4215.0 -2833755.0 0.0 18050.0 4.0 9025.0 4.0 36100.0 4.0 36100.0 4.0 36100.0 4.0 18050.0 4.0 36100.0 4.0 4.0 4.0 1645.0 1669.0 0.0 
44.0 0.0 4322.0 493905.0 4247.0 1678745.0 4110.0 1414930.0 4094.0 2261950.0 4215.0 -552045.0 4346.0 2572030.0 4216.0 -2815230.0 0.0 18050.0 4.0 9025.0 4.0 36100.0 4.0 36100.0 4.0 36100.0 4.0 18050.0 4.0 36100.0 4.0 4.0 4.0 1646.0 1670.0 0.0 
45.0 0.0 4321.0 568005.0 4250.0 1752845.0 4123.0 1424240.0 4099.0 2312870.0 4226.0 -445550.0 4353.0 2627510.0 4223.0 -2764310.0 0.0 18050.0 4.0 9025.0 4.0 36100.0 4.0 36100.0 4.0 36100.0 4.0 18050.0 4.0 36100.0 4.0 4.0 4.0 1645.0 1670.0 0.0 
46.0 0.0 4321.0 540265.0 4250.0 1766715.0 4116.0 1396405.0 4096.0 2229555.0 4211.0 -436335.0 4354.0 2576590.0 4222.0 -2782835.0 0.0 18050.0 4.0 9025.0 4.0 36100.0 4.0 36100.0 4.0 36100.0 4.0 18050.0 4.0 36100.0 4.0 4.0 4.0 1645.0 1669.0 0.0 
47.0 0.0 4324.0 521740.0 4246.0 1752845.0 4109.0 1382535.0 4096.0 2238770.0 4203.0 -464075.0 4351.0 2534980.0 4214.0 -2792050.0 0.0 18050.0 4.0 9025.0 4.0 36100.0 4.0 36100.0 4.0 36100.0 4.0 18050.0 4.0 36100.0 4.0 4.0 4.0 1644.0 1668.0 0.0 
48.0 0.0 4333.0 586530.0 4247.0 1775930.0 4115.0 1405715.0 4095.0 2322085.0 4220.0 -431680.0 4355.0 2595115.0 4215.0 -2745785.0 0.0 18050.0 4.0 9025.0 4.0 36100.0 4.0 36100.0 4.0 36100.0 4.0 18050.0 4.0 36100.0 4.0 4.0 4.0 1643.0 1668.0 0.0 
49.0 0.0 4335.0 605055.0 4246.0 1794455.0 4116.0 1428800.0 4095.0 2298905.0 4226.0 -403940.0 4361.0 2664560.0 4225.0 -2727260.0 0.0 18050.0 4.0 9025.0 4.0 36100.0 4.0 36100.0 4.0 36100.0 4.0 18050.0 4.0 36100.0 4.0 4.0 4.0 1642.0 1666.0 0.0 
50.0 0.0 4334.0 512430.0 4246.0 1729665.0 4108.0 1433455.0 4105.0 2266510.0 4217.0 -417810.0 4363.0 2683085.0 4226.0 -2731915.0 0.0 18050.0 4.0 9025.0 4.0 36100.0 4.0 36100.0 4.0 36100.0 4.0 18050.0 4.0 36100.0 4.0 4.0 4.0 1642.0 1667.0 0.0 
51.0 0.0 4334.0 475475.0 4245.0 1706485.0 4105.0 1414930.0 4109.0 2354480.0 4222.0 -427025.0 4361.0 2692300.0 4224.0 -2680995.0 0.0 18050.0 4.0 9025.0 4.0 36100.0 4.0 36100.0 4.0 36100.0 4.0 18050.0 4.0 36100.0 4.0 4.0 4.0 1643.0 1665.0 0.0 
52.0 0.0 4338.0 535610.0 4247.0 1803765.0 4102.0 1410370.0 4105.0 2382220.0 4228.0 -454860.0 4362.0 2761745.0 4231.0 -2574595.0 0.0 18050.0 4.0 9025.0 4.0 36100.0 4.0 36100.0 4.0 36100.0 4.0 18050.0 4.0 36100.0 4.0 4.0 4.0 1641.0 1666.0 0.0 
53.0 0.0 4341.0 591090.0 4245.0 1845375.0 4101.0 1405715.0 4105.0 2308215.0 4223.0 -514995.0 4363.0 2803450.0 4236.0 -2546760.0 0.0 18050.0 4.0 9025.0 4.0 36100.0 4.0 36100.0 4.0 36100.0 4.0 18050.0 4.0 36100.0 4.0 4.0 4.0 1642.0 1665.0 0.0 
54.0 0.0 4342.0 568005.0 4247.0 1794455.0 4101.0 1401060.0 4105.0 2298905.0 4216.0 -519650.0 4361.0 2752530.0 4227.0 -2597680.0 0.0 18050.0 4.0 9025.0 4.0 36100.0 4.0 36100.0 4.0 36100.0 4.0 18050.0 4.0 36100.0 4.0 4.0 4.0 1641.0 1665.0 0.0 
55.0 0.0 4339.0 498560.0 4247.0 1785240.0 4098.0 1414930.0 4109.0 2308215.0 4209.0 -473385.0 4354.0 2664560.0 4215.0 -2639385.0 0.0 18050.0 4.0 9025.0 4.0 36100.0 4.0 36100.0 4.0 36100.0 4.0 18050.0 4.0 36100.0 4.0 4.0 4.0 1642.0 1666.0 0.0 
56.0 0.0 4334.0 470820.0 4245.0 1780585.0 4099.0 1419585.0 4113.0 2261950.0 4207.0 -473385.0 4352.0 2599770.0 4211.0 -2704175.0 0.0 18050.0 4.0 9025.0 4.0 36100.0 4.0 36100.0 4.0 36100.0 4.0 18050.0 4.0 36100.0 4.0 4.0 4.0 1641.0 1667.0 0.0 
57.0 0.0 4330.0 480035.0 4244.0 1711140.0 4107.0 1433455.0 4094.0 2215590.0 4212.0 -487255.0 4353.0 2539635.0 4213.0 -2787490.0 0.0 18050.0 4.0 9025.0 4.0 36100.0 4.0 36100.0 4.0 36100.0 4.0 18050.0 4.0 36100.0 4.0 4.0 4.0 1641.0 1668.0 0.0 
58.0 0.0 4327.0 461510.0 4250.0 1678745.0 4111.0 1438110.0 4075.0 2197160.0 4214.0 -450205.0 4352.0 2497930.0 4219.0 -2801360.0 0.0 18050.0 4.0 9025.0 4.0 36100.0 4.0 36100.0 4.0 36100.0 4.0 18050.0 4.0 36100.0 4.0 4.0 4.0 1641.0 1667.0 0.0 
59.0 0.0 4324.0 480035.0 4248.0 1692615.0 4108.0 1424240.0 4089.0 2229555.0 4217.0 -427025.0 4351.0 2507240.0 4220.0 -2787490.0 0.0 18050.0 4.0 9025.0 4.0 36100.0 4.0 36100.0 4.0 36100.0 4.0 18050.0 4.0 36100.0 4.0 4.0 4.0 1641.0 1667.0 0.0 
60.0 0.0 4326.0 549480.0 4245.0 1711140.0 4113.0 1414930.0 4104.0 2354480.0 4230.0 -445550.0 4352.0 2558160.0 4219.0 -2764310.0 0.0 18050.0 4.0 9025.0 4.0 36100.0 4.0 36100.0 4.0 36100.0 4.0 18050.0 4.0 36100.0 4.0 4.0 4.0 1641.0 1667.0 0.0 
61.0 0.0 4331.0 595745.0 4251.0 1789800.0 4124.0 1424240.0 4097.0 2451665.0 4241.0 -390070.0 4356.0 2622950.0 4230.0 -2690305.0 0.0 18050.0 4.0 9025.0 4.0 36100.0 4.0 36100.0 4.0 36100.0 4.0 18050.0 4.0 36100.0 4.0 4.0 4.0 1641.0 1669.0 0.0 
62.0 0.0 4335.0 679060.0 4255.0 1896295.0 4126.0 1410370.0 4097.0 2414615.0 4236.0 -315970.0 4365.0 2701610.0 4244.0 -2620860.0 0.0 18050.0 4.0 9025.0 4.0 36100.0 4.0 36100.0 4.0 36100.0 4.0 18050.0 4.0 36100.0 4.0 4.0 4.0 1641.0 1668.0 0.0 
63.0 0.0 4336.0 790115.0 4256.0 1928690.0 4123.0 1396405.0 4107.0 2363695.0 4231.0 -348365.0 4370.0 2775615.0 4245.0 -2643945.0 0.0 18050.0 4.0 9025.0 4.0 36100.0 4.0 36100.0 4.0 36100.0 4.0 18050.0 4.0 36100.0 4.0 4.0 4.0 1640.0 1670.0 0.0 
64.0 0.0 4329.0 776245.0 4252.0 1886985.0 4124.0 1414930.0 4104.0 2354480.0 4229.0 -408595.0 4365.0 2743220.0 4241.0 -2713390.0 45.0 18050.0 4.0 9025.0 4.0 36100.0 4.0 36100.0 4.0 36100.0 4.0 18050.0 4.0 36100.0 4.0 4.0 4.0 1642.0 1669.0 0.0 
65.0 0.0 4320.0 642010.0 4251.0 1803765.0 4124.0 1410370.0 4094.0 2298905.0 4223.0 -440990.0 4362.0 2659905.0 4238.0 -2773525.0 488.0 18050.0 4.0 9025.0 4.0 36100.0 4.0 36100.0 4.0 36100.0 4.0 18050.0 4.0 36100.0 4.0 4.0 4.0 1641.0 1670.0 0.0 
66.0 0.0 4314.0 577220.0 4247.0 1738975.0 4122.0 1401060.0 4097.0 2275820.0 4221.0 -440990.0 4364.0 2646035.0 4232.0 -2778180.0 256.0 18050.0 4.0 9025.0 4.0 36100.0 4.0 36100.0 4.0 36100.0 4.0 18050.0 4.0 36100.0 4.0 4.0 4.0 1642.0 1672.0 0.0 
67.0 0.0 4316.0 581875.0 4249.0 1711140.0 4122.0 1419585.0 4106.0 2312870.0 4225.0 -464075.0 4362.0 2673870.0 4232.0 -2708735.0 497.0 18050.0 4.0 9025.0 4.0 36100.0 4.0 36100.0 4.0 36100.0 4.0 18050.0 4.0 36100.0 4.0 4.0 4.0 1641.0 1671.0 0.0 
68.0 0.0 4318.0 595745.0 4246.0 1743535.0 4122.0 1414930.0 4102.0 2303560.0 4223.0 -542735.0 4358.0 2678430.0 4235.0 -2657910.0 477.0 18050.0 4.0 9025.0 4.0 36100.0 4.0 36100.0 4.0 36100.0 4.0 18050.0 4.0 36100.0 4.0 4.0 4.0 1641.0 1672.0 0.0 
69.0 0.0 4325.0 637450.0 4247.0 1812980.0 4118.0 1387190.0 4091.0 2280475.0 4218.0 -556700.0 4362.0 2729350.0 4231.0 -2597680.0 494.0 18050.0 4.0 9025.0 4.0 36100.0 4.0 36100.0 4.0 36100.0 4.0 18050.0 4.0 36100.0 4.0 4.0 4.0 1641.0 1673.0 0.0 
70.0 0.0 4333.0 669845.0 4248.0 1891640.0 4115.0 1391845.0 4095.0 2345265.0 4224.0 -445550.0 4369.0 2831190.0 4235.0 -2523675.0 502.0 18050.0 4.0 9025.0 4.0 36100.0 4.0 36100.0 4.0 36100.0 4.0 18050.0 4.0 36100.0 4.0 4.0 4.0 1640.0 1673.0 0.0 
71.0 0.0 4336.0 679060.0 4249.0 1928690.0 4118.0 1424240.0 4108.0 2405400.0 4231.0 -417810.0 4375.0 2909850.0 4249.0 -2491280.0 438.0 18050.0 4.0 9025.0 4.0 36100.0 4.0 36100.0 4.0 36100.0 4.0 18050.0 4.0 36100.0 4.0 4.0 4.0 1640.0 1672.0 0.0 
72.0 0.0 4332.0 674405.0 4246.0 1877770.0 4122.0 1419585.0 4108.0 2391530.0 4234.0 -491910.0 4376.0 2872800.0 4246.0 -2565285.0 447.0 18050.0 4.0 9025.0 4.0 36100.0 4.0 36100.0 4.0 36100.0 4.0 18050.0 4.0 36100.0 4.0 4.0 4.0 1639.0 1671.0 0.0 
73.0 0.0 4329.0 679060.0 4247.0 1845375.0 4118.0 1410370.0 4104.0 2400745.0 4237.0 -459515.0 4374.0 2784925.0 4235.0 -2634730.0 416.0 18050.0 4.0 9025.0 4.0 36100.0 4.0 36100.0 4.0 36100.0 4.0 18050.0 4.0 36100.0 4.0 4.0 4.0 1641.0 1670.0 0.0 
74.0 0.0 4327.0 665190.0 4247.0 1845375.0 4116.0 1419585.0 4107.0 2400745.0 4235.0 -403940.0 4369.0 2743220.0 4237.0 -2662470.0 433.0 18050.0 4.0 9025.0 4.0 36100.0 4.0 36100.0 4.0 36100.0 4.0 18050.0 4.0 36100.0 4.0 4.0 4.0 1640.0 1670.0 0.0 
75.0 0.0 4323.0 637450.0 4242.0 1775930.0 4119.0 1387190.0 4103.0 2317430.0 4224.0 -477945.0 4365.0 2701610.0 4234.0 -2736570.0 373.0 18050.0 4.0 9025.0 4.0 36100.0 4.0 36100.0 4.0 36100.0 4.0 18050.0 4.0 36100.0 4.0 4.0 4.0 1641.0 1670.0 0.0 
76.0 0.0 4318.0 581875.0 4243.0 1701925.0 4123.0 1359450.0 4096.0 2271165.0 4221.0 -542735.0 4363.0 2627510.0 4226.0 -2801360.0 240.0 18050.0 4.0 9025.0 4.0 36100.0 4.0 36100.0 4.0 36100.0 4.0 18050.0 4.0 36100.0 4.0 4.0 4.0 1639.0 1670.0 0.0 
77.0 0.0 4314.0 517085.0 4246.0 1734320.0 4121.0 1391845.0 4101.0 2331300.0 4228.0 -487255.0 4361.0 2572030.0 4224.0 -2806015.0 415.0 18050.0 4.0 9025.0 4.0 36100.0 4.0 36100.0 4.0 36100.0 4.0 18050.0 4.0 36100.0 4.0 4.0 4.0 1639.0 1670.0 0.0 
78.0 0.0 4317.0 512430.0 4249.0 1752845.0 4126.0 1401060.0 4107.0 2363695.0 4230.0 -450205.0 4361.0 2558160.0 4223.0 -2810575.0 433.0 18050.0 4.0 9025.0 4.0 36100.0 4.0 36100.0 4.0 36100.0 4.0 18050.0 4.0 36100.0 4.0 4.0 4.0 1639.0 1669.0 0.0 
79.0 0.0 4319.0 554135.0 4248.0 1725010.0 4133.0 1364010.0 4101.0 2285035.0 4223.0 -501125.0 4359.0 2567375.0 4220.0 -2856840.0 373.0 18050.0 4.0 9025.0 4.0 36100.0 4.0 36100.0 4.0 36100.0 4.0 18050.0 4.0 36100.0 4.0 4.0 4.0 1638.0 1670.0 0.0 
80.0 0.0 4319.0 595745.0 4249.0 1734320.0 4130.0 1396405.0 4090.0 2211030.0 4221.0 -487255.0 4363.0 2627510.0 4225.0 -2829100.0 240.0 18050.0 4.0 9025.0 4.0 36100.0 4.0 36100.0 4.0 36100.0 4.0 18050.0 4.0 36100.0 4.0 4.0 4.0 1639.0 1669.0 0.0 
81.0 0.0 4317.0 591090.0 4247.0 1734320.0 4125.0 1410370.0 4086.0 2224900.0 4226.0 -450205.0 4364.0 2632165.0 4226.0 -2815230.0 415.0 18050.0 4.0 9025.0 4.0 36100.0 4.0 36100.0 4.0 36100.0 4.0 18050.0 4.0 36100.0 4.0 4.0 4.0 1638.0 1669.0 0.0 
82.0 0.0 4315.0 484690.0 4250.0 1678745.0 4121.0 1340925.0 4095.0 2271165.0 4225.0 -556700.0 4353.0 2572030.0 4205.0 -2889235.0 433.0 18050.0 4.0 9025.0 4.0 36100.0 4.0 36100.0 4.0 36100.0 4.0 18050.0 4.0 36100.0 4.0 4.0 4.0 1638.0 1668.0 0.0 
83.0 0.0 4311.0 382850.0 4247.0 1632480.0 4117.0 1313090.0 4107.0 2317430.0 4223.0 -676970.0 4350.0 2585900.0 4197.0 -2898545.0 373.0 18050.0 4.0 9025.0 4.0 36100.0 4.0 36100.0 4.0 36100.0 4.0 18050.0 4.0 36100.0 4.0 4.0 4.0 1638.0 1669.0 0.0 
84.0 0.0 4317.0 419900.0 4248.0 1637135.0 4126.0 1345485.0 4108.0 2377660.0 4234.0 -552045.0 4363.0 2715480.0 4224.0 -2755095.0 240.0 18050.0 4.0 9025.0 4.0 36100.0 4.0 36100.0 4.0 36100.0 4.0 18050.0 4.0 36100.0 4.0 4.0 4.0 1638.0 1668.0 0.0 
85.0 0.0 4325.0 489345.0 4252.0 1711140.0 4135.0 1377975.0 4106.0 2423925.0 4242.0 -366890.0 4372.0 2821975.0 4246.0 -2634730.0 415.0 18050.0 4.0 9025.0 4.0 36100.0 4.0 36100.0 4.0 36100.0 4.0 18050.0 4.0 36100.0 4.0 4.0 4.0 1637.0 1669.0 0.0 
86.0 0.0 4327.0 424555.0 4254.0 1711140.0 4129.0 1391845.0 4110.0 2456320.0 4238.0 -380760.0 4373.0 2863585.0 4246.0 -2625515.0 433.0 18050.0 4.0 9025.0 4.0 36100.0 4.0 36100.0 4.0 36100.0 4.0 18050.0 4.0 36100.0 4.0 4.0 4.0 1638.0 1668.0 0.0 
87.0 0.0 4325.0 336585.0 4250.0 1641695.0 4128.0 1391845.0 4109.0 2507240.0 4242.0 -408595.0 4378.0 2872800.0 4252.0 -2639385.0 373.0 18050.0 4.0 9025.0 4.0 36100.0 4.0 36100.0 4.0 36100.0 4.0 18050.0 4.0 36100.0 4.0 4.0 4.0 1636.0 1667.0 0.0 
88.0 0.0 4325.0 285665.0 4253.0 1600085.0 4132.0 1377975.0 4104.0 2470190.0 4245.0 -325280.0 4384.0 2886765.0 4266.0 -2606990.0 240.0 18050.0 4.0 9025.0 4.0 36100.0 4.0 36100.0 4.0 36100.0 4.0 18050.0 4.0 36100.0 4.0 4.0 4.0 1637.0 1667.0 0.0 
89.0 0.0 4323.0 216220.0 4254.0 1535295.0 4125.0 1331615.0 4103.0 2317430.0 4235.0 -288230.0 4383.0 2905195.0 4271.0 -2597680.0 415.0 18050.0 4.0 9025.0 4.0 36100.0 4.0 36100.0 4.0 36100.0 4.0 18050.0 4.0 36100.0 4.0 4.0 4.0 1637.0 1666.0 0.0 
90.0 0.0 4319.0 137560.0 4248.0 1442765.0 4117.0 1271480.0 4105.0 2280475.0 4231.0 -357675.0 4381.0 2891325.0 4271.0 -2606990.0 433.0 18050.0 4.0 9025.0 4.0 36100.0 4.0 36100.0 4.0 36100.0 4.0 18050.0 4.0 36100.0 4.0 4.0 4.0 1637.0 1668.0 0.0 
91.0 0.0 4319.0 105165.0 4248.0 1475160.0 4121.0 1271480.0 4113.0 2386875.0 4238.0 -380760.0 4382.0 2919160.0 4269.0 -2569940.0 373.0 18050.0 4.0 9025.0 4.0 36100.0 4.0 36100.0 4.0 36100.0 4.0 18050.0 4.0 36100.0 4.0 4.0 4.0 1638.0 1665.0 0.0 
92.0 0.0 4322.0 132905.0 4254.0 1567690.0 4125.0 1331615.0 4118.0 2474845.0 4244.0 -329840.0 4388.0 2993165.0 4273.0 -2468100.0 240.0 18050.0 4.0 9025.0 4.0 36100.0 4.0 36100.0 4.0 36100.0 4.0 18050.0 4.0 36100.0 4.0 4.0 4.0 1637.0 1665.0 0.0 
93.0 0.0 4319.0 151430.0 4256.0 1530640.0 4125.0 1317745.0 4111.0 2474845.0 4242.0 -329840.0 4390.0 2969985.0 4277.0 -2477410.0 415.0 18050.0 4.0 9025.0 4.0 36100.0 4.0 36100.0 4.0 36100.0 4.0 18050.0 4.0 36100.0 4.0 4.0 4.0 1638.0 1665.0 0.0 
94.0 0.0 4314.0 91295.0 4250.0 1442765.0 4124.0 1266825.0 4097.0 2377660.0 4232.0 -380760.0 4385.0 2826535.0 4267.0 -2593025.0 433.0 18050.0 4.0 9025.0 4.0 36100.0 4.0 36100.0 4.0 36100.0 4.0 18050.0 4.0 36100.0 4.0 4.0 4.0 1637.0 1664.0 0.0 
95.0 0.0 4316.0 35720.0 4250.0 1433455.0 4121.0 1257610.0 4091.0 2261950.0 4223.0 -440990.0 4377.0 2715480.0 4253.0 -2657910.0 373.0 18050.0 4.0 9025.0 4.0 36100.0 4.0 36100.0 4.0 36100.0 4.0 18050.0 4.0 36100.0 4.0 4.0 4.0 1638.0 1665.0 0.0 
96.0 0.0 4315.0 68115.0 4249.0 1461195.0 4122.0 1285350.0 4095.0 2271165.0 4224.0 -436335.0 4374.0 2646035.0 4250.0 -2704175.0 240.0 18050.0 4.0 9025.0 4.0 36100.0 4.0 36100.0 4.0 36100.0 4.0 18050.0 4.0 36100.0 4.0 4.0 4.0 1637.0 1664.0 0.0 
97.0 0.0 4313.0 81985.0 4252.0 1424240.0 4123.0 1308530.0 4099.0 2359135.0 4228.0 -413155.0 4373.0 2613640.0 4252.0 -2745785.0 415.0 18050.0 4.0 9025.0 4.0 36100.0 4.0 36100.0 4.0 36100.0 4.0 18050.0 4.0 36100.0 4.0 4.0 4.0 1637.0 1665.0 0.0 
98.0 0.0 4312.0 58900.0 4253.0 1391845.0 4122.0 1290005.0 4104.0 2349825.0 4226.0 -431680.0 4371.0 2664560.0 4253.0 -2722700.0 433.0 18050.0 4.0 9025.0 4.0 36100.0 4.0 36100.0 4.0 36100.0 4.0 18050.0 4.0 36100.0 4.0 4.0 4.0 1637.0 1665.0 0.0 
99.0 0.0 4315.0 81985.0 4255.0 1419585.0 4122.0 1276135.0 4109.0 2322085.0 4224.0 -450205.0 4373.0 2720135.0 4253.0 -2680995.0 373.0 18050.0 4.0 9025.0 4.0 36100.0 4.0 36100.0 4.0 36100.0 4.0 18050.0 4.0 36100.0 4.0 4.0 4.0 1638.0 1664.0 0.0 
100.0 0.0 4316.0 119035.0 4254.0 1493590.0 4121.0 1317745.0 4113.0 2456320.0 4230.0 -427025.0 4380.0 2729350.0 4253.0 -2671780.0 240.0 18050.0 4.0 9025.0 4.0 36100.0 4.0 36100.0 4.0 36100.0 4.0 18050.0 4.0 36100.0 4.0 4.0 4.0 1637.0 1664.0 0.0 
101.0 0.0 4321.0 179265.0 4258.0 1576905.0 4123.0 1350140.0 4113.0 2544195.0 4239.0 -385415.0 4385.0 2775615.0 4255.0 -2588465.0 415.0 18050.0 4.0 9025.0 4.0 36100.0 4.0 36100.0 4.0 36100.0 4.0 18050.0 4.0 36100.0 4.0 4.0 4.0 1638.0 1664.0 0.0 
102.0 0.0 4318.0 202350.0 4260.0 1581560.0 4126.0 1285350.0 4108.0 2470190.0 4243.0 -380760.0 4382.0 2757090.0 4259.0 -2523675.0 433.0 18050.0 4.0 9025.0 4.0 36100.0 4.0 36100.0 4.0 36100.0 4.0 18050.0 4.0 36100.0 4.0 4.0 4.0 1637.0 1664.0 0.0 
103.0 0.0 4312.0 128345.0 4262.0 1512115.0 4124.0 1252955.0 4104.0 2382220.0 4237.0 -399285.0 4379.0 2692300.0 4257.0 -2551415.0 373.0 18050.0 4.0 9025.0 4.0 36100.0 4.0 36100.0 4.0 36100.0 4.0 18050.0 4.0 36100.0 4.0 4.0 4.0 1638.0 1663.0 0.0 
104.0 0.0 4310.0 49590.0 4262.0 1451980.0 4123.0 1299220.0 4103.0 2335955.0 4230.0 -408595.0 4379.0 2696955.0 4254.0 -2546760.0 240.0 18050.0 4.0 9025.0 4.0 36100.0 4.0 36100.0 4.0 36100.0 4.0 18050.0 4.0 36100.0 4.0 4.0 4.0 1637.0 1662.0 0.0 
105.0 0.0 4312.0 63555.0 4259.0 1433455.0 4122.0 1313090.0 4108.0 2285035.0 4232.0 -422465.0 4378.0 2701610.0 4253.0 -2509805.0 415.0 18050.0 4.0 9025.0 4.0 36100.0 4.0 36100.0 4.0 36100.0 4.0 18050.0 4.0 36100.0 4.0 4.0 4.0 1638.0 1662.0 0.0 
106.0 0.0 4313.0 81985.0 4257.0 1479720.0 4118.0 1308530.0 4110.0 2294345.0 4235.0 -417810.0 4379.0 2669215.0 4253.0 -2560630.0 433.0 18050.0 4.0 9025.0 4.0 36100.0 4.0 36100.0 4.0 36100.0 4.0 18050.0 4.0 36100.0 4.0 4.0 4.0 1637.0 1661.0 0.0 
107.0 0.0 4311.0 45030.0 4261.0 1489030.0 4118.0 1299220.0 4106.0 2308215.0 4231.0 -408595.0 4382.0 2664560.0 4252.0 -2616205.0 373.0 18050.0 4.0 9025.0 4.0 36100.0 4.0 36100.0 4.0 36100.0 4.0 18050.0 4.0 36100.0 4.0 4.0 4.0 1638.0 1663.0 0.0 
108.0 0.0 4308.0 17195.0 4262.0 1396405.0 4119.0 1294660.0 4108.0 2247985.0 4225.0 -422465.0 4381.0 2655345.0 4249.0 -2611550.0 240.0 18050.0 4.0 9025.0 4.0 36100.0 4.0 36100.0 4.0 36100.0 4.0 18050.0 4.0 36100.0 4.0 4.0 4.0 1638.0 1661.0 0.0 
109.0 0.0 4308.0 35720.0 4259.0 1364010.0 4117.0 1336270.0 4119.0 2322085.0 4234.0 -390070.0 4385.0 2659905.0 4256.0 -2574595.0 415.0 18050.0 4.0 9025.0 4.0 36100.0 4.0 36100.0 4.0 36100.0 4.0 18050.0 4.0 36100.0 4.0 4.0 4.0 1638.0 1662.0 0.0 
110.0 0.0 4316.0 109820.0 4266.0 1465850.0 4129.0 1340925.0 4118.0 2497930.0 4251.0 -251180.0 4396.0 2798795.0 4273.0 -2486625.0 433.0 18050.0 4.0 9025.0 4.0 36100.0 4.0 36100.0 4.0 36100.0 4.0 18050.0 4.0 36100.0 4.0 4.0 4.0 1638.0 1662.0 0.0 
111.0 0.0 4318.0 183825.0 4268.0 1525985.0 4139.0 1303875.0 4107.0 2539635.0 4258.0 -172520.0 4401.0 2905195.0 4283.0 -2440360.0 373.0 18050.0 4.0 9025.0 4.0 36100.0 4.0 36100.0 4.0 36100.0 4.0 18050.0 4.0 36100.0 4.0 4.0 4.0 1638.0 1662.0 0.0 
112.0 0.0 4312.0 156085.0 4266.0 1475160.0 4125.0 1290005.0 4104.0 2447010.0 4251.0 -251180.0 4398.0 2821975.0 4274.0 -2477410.0 240.0 18050.0 4.0 9025.0 4.0 36100.0 4.0 36100.0 4.0 36100.0 4.0 18050.0 4.0 36100.0 4.0 4.0 4.0 1639.0 1662.0 0.0 
113.0 0.0 4309.0 128345.0 4262.0 1461195.0 4115.0 1303875.0 4109.0 2368350.0 4242.0 -306755.0 4393.0 2724695.0 4267.0 -2523675.0 415.0 18050.0 4.0 9025.0 4.0 36100.0 4.0 36100.0 4.0 36100.0 4.0 18050.0 4.0 36100.0 4.0 4.0 4.0 1638.0 1662.0 0.0 
114.0 0.0 4312.0 160740.0 4266.0 1502900.0 4127.0 1294660.0 4110.0 2354480.0 4243.0 -274360.0 4390.0 2715480.0 4268.0 -2551415.0 433.0 18050.0 4.0 9025.0 4.0 36100.0 4.0 36100.0 4.0 36100.0 4.0 18050.0 4.0 36100.0 4.0 4.0 4.0 1638.0 1662.0 0.0 
115.0 0.0 4311.0 151430.0 4265.0 1512115.0 4129.0 1322400.0 4104.0 2363695.0 4242.0 -288230.0 4391.0 2706265.0 4262.0 -2597680.0 373.0 18050.0 4.0 9025.0 4.0 36100.0 4.0 36100.0 4.0 36100.0 4.0 18050.0 4.0 36100.0 4.0 4.0 4.0 1637.0 1662.0 0.0 
116.0 0.0 4309.0 151430.0 4263.0 1484375.0 4124.0 1336270.0 4106.0 2414615.0 4241.0 -288230.0 4396.0 2724695.0 4261.0 -2560630.0 240.0 18050.0 4.0 9025.0 4.0 36100.0 4.0 36100.0 4.0 36100.0 4.0 18050.0 4.0 36100.0 4.0 4.0 4.0 1639.0 1662.0 0.0 
117.0 0.0 4309.0 174610.0 4261.0 1479720.0 4130.0 1299220.0 4114.0 2502585.0 4252.0 -241965.0 4397.0 2780270.0 4266.0 -2500495.0 415.0 18050.0 4.0 9025.0 4.0 36100.0 4.0 36100.0 4.0 36100.0 4.0 18050.0 4.0 36100.0 4.0 4.0 4.0 1637.0 1662.0 0.0 
118.0 0.0 4309.0 91295.0 4268.0 1479720.0 4130.0 1290005.0 4113.0 2479405.0 4253.0 -251180.0 4397.0 2789485.0 4262.0 -2532890.0 433.0 18050.0 4.0 9025.0 4.0 36100.0 4.0 36100.0 4.0 36100.0 4.0 18050.0 4.0 36100.0 4.0 4.0 4.0 1638.0 1663.0 0.0 
119.0 0.0 4307.0 3325.0 4267.0 1433455.0 4120.0 1299220.0 4108.0 2363695.0 4241.0 -232655.0 4402.0 2766400.0 4263.0 -2551415.0 373.0 18050.0 4.0 9025.0 4.0 36100.0 4.0 36100.0 4.0 36100.0 4.0 18050.0 4.0 36100.0 4.0 4.0 4.0 1639.0 1662.0 0.0 
120.0 0.0 4307.0 12635.0 4263.0 1405715.0 4119.0 1290005.0 4111.0 2349825.0 4241.0 -163305.0 4407.0 2798795.0 4279.0 -2486625.0 240.0 18050.0 4.0 9025.0 4.0 36100.0 4.0 36100.0 4.0 36100.0 4.0 18050.0 4.0 36100.0 4.0 4.0 4.0 1638.0 1663.0 0.0 
121.0 0.0 4308.0 -10545.0 4265.0 1438110.0 4123.0 1322400.0 4113.0 2400745.0 4247.0 -116945.0 4408.0 2831190.0 4292.0 -2384785.0 415.0 18050.0 4.0 9025.0 4.0 36100.0 4.0 36100.0 4.0 36100.0 4.0 18050.0 4.0 36100.0 4.0 4.0 4.0 1639.0 1663.0 0.0 
122.0 0.0 4306.0 -79990.0 4269.0 1424240.0 4122.0 1377975.0 4110.0 2451665.0 4248.0 -56810.0 4412.0 2835845.0 4296.0 -2259860.0 433.0 18050.0 4.0 9025.0 4.0 36100.0 4.0 36100.0 4.0 36100.0 4.0 18050.0 4.0 36100.0 4.0 4.0 4.0 1637.0 1662.0 0.0 
123.0 0.0 4306.0 -121600.0 4265.0 1354795.0 4125.0 1340925.0 4113.0 2622950.0 4256.0 -15200.0 4417.0 2821975.0 4304.0 -2185760.0 373.0 18050.0 4.0 9025.0 4.0 36100.0 4.0 36100.0 4.0 36100.0 4.0 18050.0 4.0 36100.0 4.0 4.0 4.0 1639.0 1663.0 0.0 
