-34
-20
-8
0
4
3
0
0
0
0
0
0
0
0
0
0
0
0
0
0
0
0
0
0
0
0
0
0
0
0
0
0
0
0
0
0
0
0
0
0
0
0
0
0
0
0
0
0
0
0
0
0
0
0
0
0
0
0
0
0
0
0
0
0
0
0
0
0
0
0
0
0
0
0
0
0
0
0
0
0
0
0
0
0
0
0
0
0
0
0
0
0
0
0
0
0
0
0
0
0
0
0
0
0
0
0
0
0
0
0
0
0
0
0
0
0
0
0
0
0
0
0
0
0
0
0
0
0
0
0
0
0
0
0
0
0
0
0
0
0
0
0
0
0
0
0
0
0
0
0
0
0
0
0
0
0
0
0
0
0
0
0
0
0
0
0
0
0
0
0
0
0
0
0
0
0
0
0
0
0
0
0
0
0
0
0
0
0
0
0
0
0
0
0
0
0
0
0
0
0
0
0
0
0
0
0
0
0
0
0
0
0
0
0
0
0
0
0
0
0
0
0
0
0
0
0
0
0
0
0
0
0
0
0
0
0
0
0
0
0
0
0
0
0
0
0
0
0
0
0
0
0
0
0
0
0
0
0
0
0
0
0
0
0
0
0
0
0
0
0
0
0
0
0
0
0
0
0
0
0
0
0
0
0
0
0
0
0
0
0
0
0
0
0
0
0
0
0
0
0
0
0
0
0
0
0
0
0
0
0
0
0
0
0
0
0
0
0
0
0
0
0
0
0
0
0
0
0
0
0
0
0
0
0
0
0
0
0
0
0
0
0
0
0
0
0
0
0
0
0
0
0
0
0
0
0
0
0
0
0
0
0
0
0
0
0
0
0
0
0
0
0
0
0
0
0
0
0
0
0
0
0
0
0
0
0
0
0
0
0
0
0
0
0
0
0
0
0
0
0
0
0
0
0
0
0
0
0
0
0
0
0
0
0
0
0
0
0
0
0
0
0
0
0
0
0
0
0
0
0
0
0
0
0
0
0
0
0
0
0
0
0
0
0
0
0
0
0
0
0
0
0
0
0
0
0
0
0
0
0
0
0
0
0
0
0
0
0
0
0
0
0
0
0
0
0
0
0
0
0
0
0
0
0
0
0
0
0
0
0
0
0
0
0
0
0
0
0
0
0
0
0
0
0
0
0
0
0
0
0
0
0
0
0
0
0
0
0
0
0
0
0
0
0
0
0
0
0
0
0
0
0
0
0
0
0
0
0
0
0
0
0
0
0
0
0
0
0
0
0
0
0
0
0
0
0
0
0
0
0
0
0
0
0
0
0
0
0
0
0
0
0
0
0
0
0
0
0
0
0
0
0
0
0
0
0
0
0
0
0
0
0
0
0
0
0
0
0
0
0
0
0
0
0
0
0
0
0
0
0
0
0
0
0
0
0
0
0
0
0
0
0
0
0
0
0
0
0
0
0
0
0
0
0
0
0
0
0
0
0
0
0
0
0
0
0
0
0
0
0
0
0
0
0
0
0
0
0
0
0
0
0
0
0
0
0
0
0
0
0
0
0
0
0
0
0
0
0
0
0
0
0
0
0
0
0
0
0
0
0
0
0
0
0
0
0
0
0
0
0
0
0
0
0
0
0
0
0
0
0
0
0
0
0
0
0
0
0
0
0
0
0
0
0
0
0
0
0
0
0
0
0
0
0
0
0
0
0
0
0
0
0
0
0
0
0
0
0
0
0
0
0
0
0
0
0
0
0
0
0
0
0
0
0
0
0
0
0
0
0
0
0
0
0
0
0
0
0
0
0
0
0
0
0
0
0
0
0
0
0
0
0
0
0
0
0
0
0
0
0
0
0
0
0
0
0
0
0
0
0
0
0
0
0
0
0
0
0
0
0
0
0
0
0
0
0
0
0
0
0
0
0
0
0
0
0
0
0
0
0
0
0
0
0
0
0
0
0
0
0
0
0
0
0
0
0
0
0
0
0
0
0
0
0
0
0
0
0
0
0
0
0
0
0
0
0
0
0
0
0
0
0
0
0
0
0
0
0
0
0
0
0
0
0
0
0
0
0
0
0
0
0
0
0
0
0
0
0
0
0
0
0
0
0
0
0
0
0
0
0
0
0
0
0
0
0
0
0
0
0
0
0
0
0
0
0
0
0
0
0
0
0
0
0
0
0
0
0
0
0
0
0
0
0
0
0
0
0
0
0
0
0
0
0
0
0
0
0
0
0
0
0
0
0
0
0
0
0
0
0
0
0
0
0
0
0
0
0
0
0
0
0
0
0
0
0
0
0
0
0
0
0
0
0
0
0
-30
-50
-71
-91
-107
-116
-117
-110
-96
-77
-54
-32
-12
3
10
10
1
-16
-40
-68
-97
-125
-148
-163
-170
-166
-154
-134
-109
-83
-59
-40
-28
-23
-26
-34
-45
-57
-67
-71
-70
-63
-51
-35
-17
1
15
25
29
26
18
4
-14
-34
-55
-74
-88
-97
-99
-94
-81
-62
-39
-14
9
28
40
46
43
35
23
9
-2
-7
-6
3
19
40
63
84
100
108
106
95
75
49
21
-5
-26
-38
-41
-34
-19
2
24
44
59
65
62
50
30
5
-22
-47
-68
-82
-87
-86
-77
-64
-50
-37
-27
-24
-28
-39
-56
-78
-102
-125
-144
-156
-160
-154
-139
-117
-90
-61
-34
-12
2
6
1
-13
-33
-56
-79
-99
-112
-117
-114
-102
-84
-62
-40
-20
-5
2
0
-11
-30
-55
-81
-105
-124
-134
-133
-122
-103
-78
-50
-25
-6
3
1
-12
-34
-61
-89
-112
-127
-129
-116
-89
-49
1
58
119
179
237
292
344
396
449
507
572
646
731
824
925
1031
1136
1237
1329
1407
1469
1511
1530
1525
1496
1444
1371
1280
1177
1065
953
845
747
661
589
531
482
439
396
348
291
222
144
58
-28
-108
-174
-219
-240
-234
-203
-152
-89
-20
44
97
133
149
145
125
92
52
12
-23
-49
-63
-65
-57
-41
-22
-3
10
15
10
-6
-31
-63
-99
-133
-163
-184
-194
-192
-179
-157
-129
-99
-73
-54
-43
-42
-51
-67
-88
-110
-130
-145
-154
-155
-149
-136
-120
-102
-83
-67
-56
-49
-48
-53
-65
-81
-99
-119
-138
-152
-160
-160
-151
-135
-112
-86
-62
-43
-33
-35
-48
-73
-105
-141
-174
-200
-214
-213
-199
-172
-137
-98
-60
-30
-11
-4
-10
-27
-51
-78
-103
-123
-135
-136
-127
-110
-87
-64
-43
-29
-25
-31
-48
-74
-106
-140
-171
-195
-207
-208
-196
-172
-141
-105
-70
-40
-18
-6
-6
-15
-32
-53
-75
-94
-108
-114
-112
-102
-87
-69
-51
-38
-30
-30
-39
-55
-76
-100
-122
-141
-153
-155
-148
-133
-110
-83
-56
-32
-14
-4
-3
-10
-24
-43
-64
-85
-101
-112
-115
-111
-100
-84
-65
-46
-29
-16
-11
-13
-23
-41
-62
-85
-107
-123
-132
-131
-121
-103
-78
-52
-27
-6
6
10
4
-9
-28
-50
-70
-87
-98
-101
-98
-88
-74
-58
-41
-27
-15
-8
-7
-10
-19
-31
-46
-61
-75
-86
-94
-97
-94
-86
-74
-59
-44
-30
-20
-15
-16
-24
-38
-55
-76
-95
-112
-124
-129
-127
-117
-103
-85
-66
-49
-37
-31
-31
-37
-47
-60
-71
-80
-84
-83
-76
-65
-50
-35
-19
-5
6
14
18
19
16
9
-2
-17
-36
-56
-76
-94
-106
-110
-104
-89
-65
-35
-4
25
48
61
63
56
41
22
4
-8
-12
-6
10
32
58
82
99
105
99
81
52
16
-21
-56
-82
-97
-99
-88
-67
-39
-10
16
36
45
44
33
15
-8
-32
-53
-69
-77
-77
-69
-55
-37
-16
3
20
31
36
34
24
7
-16
-43
-70
-94
-113
-123
-124
-114
-95
-69
-39
-10
14
32
39
37
26
9
-10
-29
-44
-51
-51
-43
-29
-10
10
28
42
50
50
42
27
7
-17
-42
-66
-85
-99
-105
-104
-95
-81
-64
-46
-29
-17
-11
-11
-18
-30
-44
-58
-68
-73
-71
-61
-44
-21
4
28
49
62
67
63
50
30
6
-18
-41
-57
-66
-66
-58
-42
-22
-2
16
28
31
23
6
-19
-50
-82
-110
-132
-143
-143
-131
-107
-76
-42
-7
22
43
53
52
41
21
-3
-29
-52
-69
-78
-77
-67
-50
-28
-3
19
37
47
47
38
20
-3
-29
-55
-76
-91
-97
-96
-88
-75
-59
-45
-33
-26
-23
-25
-30
-38
-47
-54
-60
-62
-61
-56
-47
-35
-21
-7
6
17
22
22
15
3
-15
-36
-57
-75
-87
-93
-90
-80
-63
-43
-23
-5
7
14
13
6
-7
-23
-41
-58
-72
-82
-87
-86
-79
-66
-49
-29
-8
10
24
29
24
8
-18
-52
-90
-127
-158
-179
-186
-177
-154
-119
-78
-36
2
30
45
47
36
15
-12
-40
-63
-78
-83
-78
-63
-42
-18
5
22
32
32
23
6
-16
-39
-60
-76
-83
-83
-75
-61
-46
-33
-24
-24
-33
-51
-75
-103
-129
-150
-162
-164
-153
-132
-101
-66
-29
5
35
57
70
74
69
57
40
18
-5
-28
-49
-64
-74
-77
-72
-61
-45
-26
-6
11
22
27
22
10
-10
-34
-60
-84
-101
-110
-109
-97
-76
-48
-19
6
24
29
19
-5
-41
-86
-132
-174
-204
-217
-212
-189
-150
-101
-48
1
42
68
80
76
59
33
3
-27
-52
-70
-79
-78
-69
-53
-34
-13
6
21
30
30
22
4
-20
-49
-79
-107
-129
-143
-146
-138
-121
-96
-68
-41
-17
0
9
9
2
-11
-27
-41
-52
-57
-56
-47
-33
-13
8
29
48
61
68
69
63
52
39
24
11
1
-4
-3
3
15
30
46
62
75
83
85
81
71
55
36
16
-2
-17
-25
-26
-18
-3
19
43
68
89
103
109
104
91
69
43
16
-9
-27
-37
-37
-28
-11
10
32
50
60
60
48
26
-6
-43
-81
-115
-142
-157
-159
-148
-126
-96
-62
-29
-1
19
30
30
20
4
-15
-35
-52
-64
-70
-68
-59
-46
-30
-14
0
10
15
14
7
-5
-21
-40
-58
-74
-86
-91
-89
-79
-62
-40
-16
6
23
30
25
7
-23
-63
-109
-156
-195
-223
-235
-227
-201
-159
-106
-46
13
66
109
139
157
165
168
171
180
201
237
292
366
458
564
681
802
921
1033
1133
1217
1283
1333
1366
1387
1397
1399
1396
1387
1373
1351
1318
1274
1214
1139
1049
947
834
717
600
489
387
298
226
171
132
107
93
86
81
74
62
42
14
-19
-55
-89
-115
-130
-130
-115
-87
-49
-7
34
67
88
95
87
66
36
3
-29
-56
-76
-86
-87
-81
-69
-56
-43
-31
-24
-22
-25
-33
-45
-61
-79
-98
-116
-131
-141
-146
-143
-133
-117
-96
-73
-51
-33
-21
-18
-24
-37
-57
-80
-102
-120
-131
-135
-130
-118
-101
-83
-67
-55
-51
-53
-63
-79
-98
-117
-134
-146
-151
-149
-141
-125
-105
-83
-60
-40
-24
-15
-13
-19
-33
-52
-76
-99
-121
-136
-143
-141
-130
-110
-87
-62
-41
-28
-23
-30
-46
-71
-99
-127
-150
-164
-168
-159
-141
-114
-83
-51
-23
-1
12
15
10
-4
-23
-45
-67
-87
-103
-113
-118
-115
-108
-96
-80
-63
-47
-32
-22
-16
-17
-23
-33
-48
-63
-78
-89
-96
-97
-92
-82
-70
-58
-48
-43
-44
-51
-64
-80
-96
-109
-117
-118
-110
-94
-72
-46
-20
4
22
32
34
26
11
-9
-33
-56
-77
-93
-102
-103
-96
-82
-63
-41
-19
-1
13
19
17
8
-7
-27
-47
-66
-81
-89
-89
-81
-66
-45
-22
0
18
28
29
18
-3
-32
-65
-100
-129
-151
-160
-156
-138
-108
-70
-30
9
41
62
70
66
50
26
-1
-29
-52
-68
-76
-75
-67
-54
-38
-23
-10
-1
2
0
-8
-20
-34
-49
-63
-74
-80
-81
-77
-68
-55
-40
-25
-13
-6
-4
-8
-18
-31
-45
-58
-66
-67
-60
-46
-23
3
33
61
85
102
110
108
98
80
57
32
8
-12
-25
-30
-25
-13
6
29
51
70
83
86
81
67
48
25
4
-12
-21
-22
-15
-3
9
19
23
17
2
-22
-51
-82
-110
-131
-141
-139
-125
-101
-69
-34
1
33
59
79
92
97
95
87
73
54
32
7
-17
-38
-54
-63
-63
-53
-36
-12
13
36
53
60
55
38
11
-23
-59
-93
-118
-132
-132
-118
-94
-61
-25
10
38
57
64
60
45
23
-2
-28
-50
-65
-73
-72
-63
-49
-32
-14
2
13
18
16
8
-5
-21
-39
-54
-66
-73
-74
-69
-58
-44
-28
-12
1
10
14
12
3
-11
-29
-49
-70
-88
-101
-107
-106
-95
-77
-52
-23
5
29
46
53
50
38
17
-7
-33
-54
-67
-72
-67
-54
-34
-12
9
26
37
40
37
27
12
-5
-23
-40
-55
-68
-79
-86
-92
-95
-96
-95
-92
-86
-79
-71
-62
-54
-47
-40
-34
-28
-22
-14
-4
6
18
29
38
43
42
34
20
0
-23
-46
-66
-80
-86
-83
-71
-52
-30
-7
12
24
28
22
7
-15
-42
-71
-97
-117
-130
-132
-123
-104
-77
-45
-12
18
39
49
45
27
-4
-43
-84
-121
-149
-162
-158
-137
-103
-60
-15
25
55
70
70
55
29
-4
-38
-70
-94
-108
-112
-105
-91
-72
-51
-30
-12
0
6
6
-1
-13
-29
-46
-62
-75
-84
-88
-86
-80
-71
-60
-50
-42
-37
-37
-40
-46
-54
-62
-70
-76
-80
-80
-76
-68
-56
-42
-27
-11
2
11
16
13
3
-13
-34
-56
-78
-94
-102
-100
-88
-68
-42
-15
8
23
25
13
-13
-50
-94
-137
-175
-201
-210
-201
-176
-135
-85
-31
19
61
90
102
98
79
48
9
-32
-70
-103
-125
-135
-132
-117
-93
-63
-31
-1
23
38
42
34
16
-8
-37
-66
-90
-105
-112
-108
-95
-76
-53
-31
-14
-3
-2
-9
-24
-44
-65
-84
-98
-105
-103
-93
-76
-54
-31
-8
9
20
23
18
6
-11
-32
-52
-70
-84
-90
-90
-81
-66
-46
-22
1
23
39
49
52
46
34
17
-2
-21
-36
-45
-47
-42
-29
-12
7
26
41
50
52
47
36
21
4
-10
-20
-23
-19
-7
13
37
64
90
111
124
127
116
93
59
18
-27
-68
-103
-125
-133
-123
-100
-65
-23
18
54
80
93
92
79
55
26
-5
-34
-58
-76
-87
-90
-88
-82
-73
-62
-52
-42
-35
-32
-32
-36
-44
-55
-66
-77
-85
-88
-86
-77
-64
-49
-33
-19
-10
-7
-11
-20
-33
-49
-64
-77
-87
-92
-93
-90
-86
-80
-75
-71
-68
-68
-70
-73
-78
-81
-84
-85
-83
-77
-68
-56
-41
-24
-8
7
18
24
25
22
15
8
3
3
11
30
60
103
157
220
291
365
441
517
591
663
735
807
881
957
1037
1120
1204
1287
1365
1435
1489
1524
1536
1521
1478
1406
1308
1189
1054
911
767
629
503
394
303
231
177
136
105
81
59
37
15
-8
-31
-53
-70
-83
-89
-88
-80
-65
-46
-23
1
24
44
58
64
61
47
23
-8
-45
-84
-119
-148
-165
-168
-158
-136
-105
-70
-37
-10
7
12
4
-13
-37
-64
-88
-105
-114
-114
-106
-92
-76
-61
-50
-46
-49
-59
-74
-92
-111
-128
-139
-145
-144
-137
-123
-106
-87
-68
-50
-35
-24
-20
-21
-28
-39
-55
-72
-90
-106
-118
-126
-129
-125
-117
-104
-91
-78
-68
-63
-65
-74
-88
-106
-126
-142
-153
-155
-148
-132
-107
-77
-45
-16
6
19
20
11
-8
-34
-60
-85
-104
-113
-113
-103
-87
-67
-48
-34
-28
-32
-45
-66
-91
-118
-141
-157
-164
-160
-146
-124
-97
-67
-38
-13
6
17
22
19
10
-3
-19
-36
-52
-65
-75
-81
-81
-77
-69
-58
-46
-35
-27
-23
-26
-35
-49
-68
-88
-106
-120
-126
-123
-111
-89
-60
-27
7
36
59
72
74
66
48
23
-4
-31
-53
-67
-72
-68
-55
-36
-14
7
24
35
37
29
14
-7
-31
-53
-71
-82
-83
-74
-57
-33
-5
21
44
60
68
66
56
40
19
-1
-20
-35
-43
-45
-40
-28
-11
10
32
54
73
86
91
86
72
47
15
-22
-60
-94
-120
-134
-135
-121
-95
-61
-23
14
44
65
74
73
62
47
30
16
8
8
17
33
54
77
98
114
123
124
115
97
72
43
14
-12
-32
-43
-43
-32
-11
17
49
81
107
124
131
126
111
88
61
35
13
0
-4
2
17
39
62
85
102
110
108
96
73
44
10
-24
-53
-74
-84
-81
-67
-43
-12
21
52
77
93
99
95
82
61
38
14
-8
-24
-35
-39
-37
-30
-20
-10
0
6
7
2
-9
-26
-46
-67
-87
-101
-109
-106
-93
-71
-41
-8
25
53
72
80
77
61
37
7
-23
-51
-71
-83
-84
-74
-57
-35
-11
10
26
33
32
22
4
-19
-44
-68
-88
-101
-107
-104
-93
-76
-53
-30
-7
12
25
30
27
17
0
-20
-41
-61
-76
-83
-83
-74
-59
-39
-18
2
17
25
26
19
7
-9
-27
-42
-52
-58
-57
-50
-38
-22
-4
15
31
44
51
50
42
25
1
-29
-61
-92
-118
-135
-141
-134
-115
-87
-53
-18
11
33
43
42
31
12
-9
-29
-44
-51
-49
-40
-26
-9
7
20
27
28
23
13
-2
-20
-39
-59
-78
-96
-112
-123
-131
-133
-128
-117
-100
-79
-57
-35
-17
-4
2
2
-3
-10
-17
-21
-21
-15
-4
10
24
35
41
40
31
15
-6
-29
-51
-69
-81
-85
-82
-72
-58
-41
-26
-13
-5
-4
-9
-19
-34
-51
-69
-84
-95
-101
-100
-93
-79
-61
-41
-21
-4
8
12
9
-2
-19
-41
-64
-87
-105
-116
-120
-116
-103
-86
-65
-44
-28
-17
-14
-20
-33
-52
-74
-95
-111
-120
-120
-111
-94
-70
-45
-22
-4
6
7
-3
-20
-45
-72
-99
-121
-137
-144
-142
-130
-111
-85
-57
-28
-3
16
27
29
21
6
-16
-40
-64
-84
-98
-103
-100
-88
-69
-48
-26
-6
8
15
14
6
-7
-25
-43
-58
-70
-76
-74
-68
-56
-42
-28
-16
-8
-6
-10
-19
-33
-51
-69
-86
-100
-110
-115
-114
-108
-98
-85
-71
-58
-46
-38
-34
-33
-36
-42
-49
-56
-61
-62
-59
-52
-40
-27
-12
0
8
10
5
-6
-23
-45
-67
-90
-109
-122
-129
-128
-120
-105
-86
-64
-43
-23
-8
2
5
3
-4
-14
-25
-35
-40
-41
-36
-26
-12
4
18
30
37
38
34
26
13
0
-13
-23
-32
-36
-36
-32
-24
-13
0
14
28
41
51
57
59
55
48
38
26
17
10
9
14
24
37
51
64
72
72
65
50
28
1
-27
-52
-72
-84
-87
-80
-64
-41
-15
11
33
48
54
50
35
13
-13
-40
-63
-80
-86
-82
-70
-52
-33
-16
-7
-7
-18
-38
-63
-91
-116
-134
-142
-139
-124
-100
-71
-40
-12
10
24
28
24
13
-2
-21
-39
-55
-68
-77
-81
-81
-78
-73
-67
-62
-58
-56
-56
-57
-60
-64
-69
-74
-78
-80
-80
-77
-72
-64
-53
-38
-20
0
22
46
69
93
116
138
159
183
210
245
289
345
416
501
600
709
824
940
1050
1150
1236
1304
1354
1388
1406
1411
1406
1391
1367
1334
1290
1233
1163
1080
985
880
768
655
544
438
341
252
174
106
47
-2
-42
-73
-94
-105
-107
-101
-90
-74
-58
-43
-31
-22
-17
-13
-10
-6
1
10
22
34
46
53
56
51
40
21
-2
-29
-56
-81
-101
-114
-121
-120
-113
-101
-87
-72
-59
-50
-46
-48
-54
-65
-78
-92
-104
-112
-115
-111
-102
-88
-69
-50
-31
-16
-8
-6
-13
-28
-50
-75
-101
-124
-142
-153
-154
-147
-131
-111
-88
-67
-51
-42
-42
-51
-67
-88
-110
-130
-145
-152
-149
-137
-117
-92
-65
-41
-23
-13
-13
-23
-42
-66
-93
-119
-142
-157
-164
-162
-151
-133
-109
-85
-61
-41
-28
-22
-25
-35
-50
-69
-89
-105
-118
-123
-121
-112
-98
-81
-64
-50
-41
-39
-44
-56
-73
-92
-109
-121
-127
-124
-113
-94
-70
-44
-19
1
15
20
17
5
-12
-32
-53
-71
-84
-89
-87
-77
-60
-39
-17
3
18
26
25
14
-5
-32
-62
-93
-120
-141
-152
-151
-139
-116
-85
-49
-12
20
45
59
61
52
34
9
-18
-44
-64
-76
-79
-72
-58
-39
-21
-5
5
7
0
-13
-30
-49
-66
-79
-84
-80
-68
-49
-26
0
26
47
62
69
68
59
41
18
-9
-37
-63
-85
-99
-106
-105
-96
-80
-61
-41
-21
-6
5
10
10
3
-6
-18
-30
-40
-45
-45
-40
-28
-11
8
27
44
54
57
49
32
7
-23
-53
-79
-97
-103
-97
-78
-49
-14
23
57
83
99
103
95
78
53
26
1
-20
-32
-35
-28
-12
9
34
57
75
85
86
77
59
35
9
-14
-33
-43
-43
-34
-17
6
31
54
73
86
91
87
76
60
40
20
0
-15
-26
-30
-29
-22
-12
-1
10
17
19
15
5
-10
-27
-45
-60
-70
-73
-70
-60
-45
-26
-5
13
28
36
39
34
22
5
-16
-38
-60
-78
-92
-98
-97
-89
-74
-55
-34
-15
1
11
14
10
-1
-16
-34
-50
-63
-70
-70
-61
-46
-25
-2
20
39
51
55
50
37
16
-8
-33
-56
-74
-86
-90
-86
-76
-61
-44
-27
-13
-5
-4
-8
-19
-34
-51
-67
-80
-87
-86
-78
-63
-42
-18
5
26
41
48
46
37
20
-1
-25
-48
-69
-84
-92
-93
-86
-73
-56
-36
-17
-2
8
11
8
-2
-17
-34
-51
-64
-72
-73
-68
-56
-40
-22
-3
15
29
37
41
37
27
11
-12
-39
-68
-98
-124
-145
-157
-158
-148
-129
-103
-73
-43
-18
0
8
8
0
-11
-23
-32
-35
-31
-20
-4
14
30
42
45
40
26
6
-19
-45
-66
-81
-87
-84
-72
-55
-34
-15
-2
4
-1
-14
-36
-63
-91
-116
-134
-143
-142
-131
-111
-86
-58
-31
-7
10
21
24
19
9
-6
-24
-43
-59
-72
-80
-81
-76
-65
-49
-31
-13
2
11
13
7
-7
-26
-49
-72
-91
-104
-109
-104
-93
-76
-56
-39
-26
-21
-26
-40
-60
-85
-110
-131
-145
-150
-144
-129
-107
-81
-55
-31
-13
-2
0
-4
-13
-26
-41
-54
-65
-72
-75
-72
-65
-53
-39
-23
-7
6
16
20
18
9
-6
-25
-47
-67
-85
-98
-103
-102
-94
-81
-64
-46
-29
-15
-6
-3
-6
-15
-30
-48
-67
-87
-103
-113
-117
-113
-101
-83
-61
-39
-18
-3
4
2
-8
-24
-45
-65
-83
-95
-99
-94
-82
-64
-44
-24
-7
4
8
4
-7
-23
-43
-63
-81
-95
-103
-104
-99
-88
-72
-53
-34
-15
-1
8
11
5
-8
-29
-56
-87
-118
-148
-172
-187
-191
-183
-165
-138
-105
-70
-38
-13
3
10
7
-3
-17
-30
-41
-45
-42
-32
-16
3
21
35
43
43
35
21
2
-18
-36
-50
-57
-56
-47
-32
-11
11
33
52
66
74
74
68
56
40
20
1
-18
-33
-44
-49
-47
-40
-27
-11
5
21
32
36
33
23
7
-12
-31
-45
-51
-48
-33
-10
20
52
81
102
113
111
96
72
41
8
-23
-48
-65
-72
-71
-64
-53
-41
-32
-27
-27
-33
-43
-56
-71
-84
-95
-103
-105
-102
-95
-84
-70
-56
-42
-30
-21
-17
-18
-23
-32
-44
-57
-71
-83
-92
-97
-98
-94
-86
-76
-65
-53
-44
-37
-35
-37
-43
-51
-61
-70
-77
-81
-81
-78
-71
-63
-55
-48
-42
-40
-41
-45
-51
-57
-63
-68
-68
-65
-56
-40
-17
14
52
98
150
208
270
335
402
471
540
611
685
761
842
927
1016
1107
1199
1288
1370
1439
1491
1522
1528
1507
1460
1388
1295
1187
1071
952
837
730
635
553
483
422
368
317
265
211
155
97
41
-11
-56
-88
-108
-112
-103
-83
-53
-20
14
43
64
76
77
66
46
20
-10
-40
-66
-87
-99
-103
-99
-87
-72
-55
-41
-31
-28
-31
-41
-56
-74
-93
-109
-122
-129
-130
-125
-115
-103
-90
-78
-69
-65
-66
-72
-82
-95
-108
-121
-131
-137
-137
-132
-121
-108
-93
-81
-72
-69
-73
-83
-98
-115
-131
-143
-148
-145
-135
-118
-97
-77
-59
-47
-44
-49
-60
-76
-94
-109
-120
-125
-123
-114
-101
-85
-68
-54
-42
-35
-32
-32
-36
-43
-52
-64
-78
-93
-109
-123
-136
-145
-149
-147
-138
-124
-106
-86
-67
-52
-42
-40
-44
-54
-69
-85
-101
-115
-124
-129
-129
-125
-119
-111
-104
-99
-96
-97
-100
-105
-111
-116
-118
-116
-109
-97
-79
-59
-36
-14
4
16
21
18
6
-13
-36
-61
-83
-101
-112
-114
-108
-96
-79
-60
-44
-32
-27
-30
-41
-59
-80
-102
-121
-134
-138
-132
-116
-92
-63
-33
-5
15
27
29
20
3
-18
-41
-62
-79
-89
-91
-88
-80
-70
-60
-51
-45
-41
-40
-41
-43
-45
-47
-48
-50
-51
-52
-54
-55
-55
-53
-47
-38
-26
-12
3
16
25
27
21
7
-16
-44
-76
-108
-135
-154
-163
-160
-146
-124
-96
-67
-41
-21
-10
-8
-15
-28
-43
-58
-68
-72
-68
-57
-41
-22
-3
12
21
22
16
3
-15
-34
-52
-66
-74
-75
-69
-59
-45
-30
-17
-9
-6
-9
-16
-28
-40
-52
-60
-64
-60
-50
-34
-12
11
35
58
76
88
93
91
82
68
50
31
13
-2
-11
-15
-14
-8
1
11
19
23
23
17
6
-10
-28
-46
-63
-75
-82
-83
-76
-63
-45
-24
-1
20
38
52
59
59
52
39
22
3
-16
-32
-43
-48
-46
-36
-21
-4
15
31
41
45
40
28
8
-15
-38
-58
-71
-77
-73
-60
-41
-18
5
25
38
44
43
34
20
4
-12
-27
-38
-47
-52
-54
-55
-54
-53
-51
-48
-44
-40
-35
-30
-25
-21
-20
-20
-22
-24
-25
-25
-21
-13
-2
12
26
38
46
48
44
32
14
-7
-29
-49
-64
-73
-75
-69
-59
-45
-30
-17
-7
-2
-2
-7
-15
-27
-40
-51
-60
-65
-63
-54
-39
-18
7
32
55
72
78
72
54
23
-16
-58
-99
-131
-149
-152
-138
-108
-69
-24
19
55
79
88
83
66
40
11
-17
-40
-53
-57
-50
-34
-13
10
32
49
59
60
53
39
20
-1
-20
-36
-46
-51
-50
-45
-39
-33
-31
-32
-38
-48
-59
-71
-81
-86
-87
-82
-73
-61
-46
-30
-13
4
19
33
43
50
53
50
42
28
10
-11
-32
-50
-63
-70
-70
-61
-46
-27
-6
13
29
37
38
29
13
-11
-39
-68
-97
-120
-136
-142
-138
-124
-101
-72
-42
-12
12
28
35
33
22
6
-12
-30
-43
-50
-50
-44
-31
-15
2
16
26
28
22
8
-12
-36
-62
-86
-105
-116
-118
-111
-96
-74
-50
-26
-6
7
11
7
-5
-23
-44
-63
-78
-86
-85
-75
-56
-32
-5
20
40
52
53
43
24
-4
-35
-65
-91
-109
-117
-113
-99
-76
-47
-18
8
28
39
40
31
13
-10
-35
-59
-77
-89
-92
-86
-72
-53
-31
-10
7
17
19
13
-1
-21
-42
-63
-81
-92
-95
-90
-79
-63
-46
-29
-16
-10
-10
-16
-28
-42
-57
-71
-80
-84
-81
-73
-59
-42
-22
-3
15
30
41
48
49
43
31
13
-11
-40
-70
-99
-124
-142
-149
-144
-127
-100
-65
-29
4
30
44
45
34
14
-13
-40
-61
-75
-77
-67
-47
-21
8
36
57
69
70
61
43
19
-6
-28
-45
-53
-51
-39
-18
8
36
62
81
91
91
81
63
39
14
-8
-24
-30
-27
-13
7
32
58
81
99
109
110
104
90
73
54
36
21
11
7
10
17
29
42
55
64
69
67
58
43
22
-2
-28
-50
-68
-79
-81
-75
-61
-42
-20
2
21
34
39
36
25
6
-16
-41
-63
-81
-91
-91
-82
-65
-43
-18
3
18
23
16
-3
-32
-66
-103
-136
-159
-171
-168
-152
-123
-87
-48
-11
19
39
46
43
29
8
-17
-41
-62
-76
-82
-78
-67
-49
-28
-7
11
23
27
22
9
-10
-32
-52
-68
-76
-75
-65
-47
-23
4
32
60
88
118
152
194
246
312
393
488
595
710
830
950
1066
1174
1272
1358
1431
1489
1530
1552
1554
1535
1494
1432
1351
1255
1150
1041
933
833
742
662
594
534
479
425
368
308
242
173
103
35
-24
-73
-107
-125
-127
-114
-89
-56
-20
16
49
74
91
99
97
87
69
48
25
3
-16
-28
-33
-31
-23
-12
0
8
8
-1
-21
-52
-90
-130
-168
-198
-214
-215
-198
-166
-122
-74
-28
10
35
44
34
10
-25
-64
-103
-135
-154
-160
-152
-132
-104
-74
-46
-24
-14
-15
-28
-51
-79
-110
-139
-161
-176
-180
-174
-160
-139
-115
-90
-67
-49
-37
-32
-34
-43
-55
-71
-87
-101
-111
-116
-114
-107
-96
-81
-65
-50
-39
-33
-33
-37
-47
-61
-76
-93
-109
-124
-136
-146
-152
-156
-155
-152
-145
-136
-125
-114
-103
-94
-86
-82
-79
-78
-76
-73
-68
-60
-50
-38
-26
-16
-10
-9
-15
-26
-41
-59
-76
-92
-102
-108
-108
-104
-96
-88
-81
-77
-78
-83
-93
-104
-116
-126
-133
-134
-129
-118
-101
-79
-56
-32
-10
7
19
24
22
14
0
-17
-36
-54
-70
-82
-88
-89
-85
-76
-65
-53
-42
-33
-29
-28
-33
-41
-53
-67
-80
-92
-100
-103
-100
-93
-80
-63
-45
-27
-12
-3
0
-3
-13
-28
-46
-63
-78
-88
-91
-87
-78
-64
-49
-35
-25
-22
-27
-40
-60
-85
-112
-138
-160
-174
-179
-174
-160
-137
-108
-77
-48
-24
-8
-1
-6
-19
-41
-65
-90
-109
-121
-124
-115
-99
-76
-50
-27
-10
-2
-5
-18
-39
-65
-92
-115
-132
-140
-138
-126
-105
-78
-49
-20
6
26
38
42
37
24
6
-17
-40
-62
-78
-86
-86
-75
-56
-32
-4
23
44
58
60
53
36
13
-12
-36
-54
-63
-62
-52
-33
-9
17
41
60
71
74
69
57
39
18
-3
-22
-38
-48
-54
-54
-50
-43
-35
-27
-23
-22
-26
-35
-47
-61
-75
-87
-93
-93
-86
-71
-50
-25
1
26
45
57
62
57
45
26
3
-21
-43
-61
-72
-76
-72
-61
-45
-27
-8
7
15
15
5
-15
-42
-73
-104
-131
-149
-156
-148
-127
-94
-54
-11
29
61
83
90
84
65
38
7
-24
-50
-68
-77
-75
-65
-48
-28
-7
11
24
33
35
32
23
11
-4
-21
-39
-56
-73
-87
-98
-104
-104
-98
-87
-72
-55
-38
-23
-13
-9
-10
-16
-25
-34
-39
-40
-35
-22
-6
13
31
44
50
48
35
15
-10
-37
-62
-80
-90
-89
-78
-59
-36
-12
7
18
19
9
-12
-41
-73
-105
-131
-148
-154
-148
-129
-101
-66
-30
3
31
49
58
56
46
29
8
-14
-34
-51
-61
-66
-65
-60
-50
-39
-27
-18
-12
-11
-16
-27
-42
-62
-82
-101
-116
-124
-122
-111
-91
-64
-33
-3
24
43
52
50
38
17
-8
-36
-62
-83
-97
-104
-104
-97
-87
-73
-59
-45
-33
-25
-20
-19
-23
-29
-39
-49
-60
-68
-72
-72
-67
-57
-44
-29
-17
-9
-8
-16
-33
-56
-84
-113
-140
-159
-168
-166
-151
-125
-92
-56
-22
6
23
28
21
3
-22
-49
-74
-93
-102
-99
-85
-64
-37
-10
13
29
36
31
17
-5
-32
-61
-89
-111
-126
-132
-130
-118
-100
-77
-52
-29
-11
0
1
-7
-23
-47
-73
-98
-117
-129
-129
-118
-97
-68
-37
-6
18
34
38
31
13
-11
-39
-67
-91
-107
-115
-113
-103
-88
-68
-49
-33
-22
-17
-19
-28
-40
-55
-70
-81
-88
-89
-84
-74
-59
-42
-26
-12
-2
3
1
-7
-20
-37
-56
-76
-94
-109
-119
-122
-119
-108
-92
-71
-48
-27
-9
4
8
5
-6
-22
-41
-59
-73
-82
-83
-76
-63
-45
-26
-9
2
6
1
-12
-32
-58
-85
-111
-132
-146
-149
-142
-124
-98
-65
-31
3
32
52
62
61
51
33
11
-11
-29
-39
-40
-32
-16
5
27
46
59
64
59
45
25
2
-19
-37
-47
-48
-40
-23
-1
25
52
75
94
105
108
102
88
69
47
25
5
-8
-14
-10
2
20
42
63
79
86
82
65
37
2
-36
-72
-100
-116
-118
-107
-84
-53
-18
13
38
53
56
48
30
5
-23
-51
-77
-98
-111
-116
-113
-103
-86
-66
-44
-24
-8
1
1
-6
-20
-39
-59
-77
-90
-96
-95
-88
-76
-64
-56
-52
-57
-68
-86
-107
-128
-146
-157
-161
-156
-142
-122
-98
-71
-45
-20
1
18
29
34
33
26
13
-5
-27
-49
-69
-84
-91
-87
-72
-45
-7
39
90
144
198
249
299
346
392
440
492
551
618
696
784
881
984
1090
1194
1292
1377
1445
1492
1514
1512
1484
1434
1364
1280
1186
1088
991
898
813
734
660
591
522
452
379
302
224
147
76
14
-34
-66
-80
-78
-62
-38
-10
16
37
49
51
44
30
12
-8
-25
-38
-45
-45
-41
-32
-20
-7
5
14
19
19
13
1
-17
-39
-63
-89
-111
-129
-139
-141
-135
-122
-104
-86
-70
-61
-60
-68
-84
-107
-132
-155
-173
-182
-181
-169
-149
-123
-95
-68
-47
-32
-27
-29
-39
-54
-71
-89
-106
-119
-127
-131
-129
-122
-112
-99
-84
-69
-55
-44
-38
-37
-43
-56
-75
-100
-128
-156
-182
-202
-214
-216
-208
-191
-166
-138
-108
-82
-62
-51
-48
-52
-62
-74
-87
-95
-98
-96
-89
-78
-67
-57
-52
-52
-58
-69
-84
-101
-116
-128
-136
-138
-133
-123
-108
-91
-72
-55
-40
-30
-26
-28
-36
-48
-65
-82
-98
-110
-118
-119
-115
-106
-95
-84
-74
-68
-66
-69
-75
-83
-92
-99
-103
-102
-97
-88
-76
-62
-48
-35
-25
-18
-15
-16
-21
-29
-38
-50
-61
-72
-82
-90
-96
-101
-104
-105
-105
-103
-99
-94
-87
-79
-71
-64
-57
-52
-49
-47
-46
-44
-41
-36
-28
-19
-9
-1
3
3
-3
-15
-31
-50
-69
-86
-97
-102
-100
-92
-78
-61
-44
-28
-15
-7
-5
-9
-19
-35
-55
-77
-99
-119
-135
-144
-145
-138
-123
-102
-78
-55
-35
-23
-19
-25
-39
-58
-79
-97
-109
-113
-108
-95
-75
-51
-28
-8
4
8
2
-11
-31
-52
-74
-91
-100
-100
-90
-72
-46
-17
11
35
50
53
44
23
-8
-45
-83
-118
-145
-159
-160
-146
-120
-84
-43
-2
35
64
82
89
84
70
50
28
6
-11
-21
-22
-15
-1
18
40
60
74
82
80
68
48
21
-9
-38
-64
-84
-95
-97
-89
-72
-51
-27
-4
15
28
33
31
21
6
-12
-30
-46
-57
-62
-61
-55
-44
-30
-17
-5
4
8
7
1
-8
-22
-38
-54
-71
-84
-94
-98
-96
-87
-71
-52
-32
-13
1
6
1
-15
-38
-67
-95
-119
-134
-137
-127
-106
-76
-42
-11
15
30
34
27
10
-11
-33
-53
-66
-70
-67
-57
-41
-24
-6
8
18
22
21
14
2
-14
-31
-48
-63
-75
-81
-80
-72
-58
-41
-21
-4
9
13
9
-5
-28
-56
-85
-111
-131
-140
-138
-123
-99
-69
-36
-5
19
35
40
35
21
2
-20
-43
-62
-77
-85
-86
-81
-69
-54
-35
-16
1
15
22
23
15
0
-23
-50
-78
-104
-124
-134
-134
-121
-99
-70
-39
-10
13
26
27
18
0
-23
-48
-70
-84
-90
-85
-71
-51
-26
-1
20
36
43
40
27
6
-22
-54
-87
-117
-141
-156
-160
-152
-134
-107
-74
-40
-9
14
27
28
17
-2
-27
-52
-74
-88
-93
-87
-72
-52
-29
-8
7
13
9
-4
-24
-50
-77
-102
-121
-134
-139
-136
-126
-111
-93
-74
-57
-42
-33
-28
-28
-32
-39
-48
-57
-64
-67
-66
-60
-50
-36
-21
-8
3
8
6
-4
-21
-45
-72
-100
-125
-144
-155
-155
-146
-127
-101
-72
-42
-16
4
15
15
7
-9
-29
-51
-71
-85
-93
-92
-84
-69
-51
-31
-13
0
7
8
2
-10
-26
-44
-63
-80
-93
-101
-104
-103
-97
-87
-75
-63
-52
-45
-41
-42
-48
-58
-69
-81
-89
-93
-90
-81
-65
-46
-26
-7
6
13
11
2
-12
-31
-49
-65
-76
-83
-84
-81
-76
-70
-65
-63
-62
-65
-68
-72
-76
-78
-80
-80
-80
-79
-77
-72
-66
-57
-46
-33
-20
-9
0
4
2
-5
-16
-30
-44
-56
-65
-71
-72
-71
-68
-67
-68
-73
-81
-92
-104
-115
-123
-126
-123
-115
-101
-83
-62
-39
-15
9
31
51
68
80
87
86
79
64
44
21
-2
-22
-36
-40
-34
-18
4
31
56
76
86
84
69
44
12
-22
-53
-77
-89
-87
-72
-46
-12
24
59
87
105
112
106
89
65
37
9
-15
-32
-41
-42
-35
-24
-12
-3
2
-2
-14
-33
-58
-86
-112
-134
-148
-153
-148
-134
-113
-87
-59
-32
-10
7
17
20
15
4
-14
-35
-58
-81
-101
-116
-124
-125
-117
-103
-84
-62
-41
-23
-11
-6
-9
-18
-34
-52
-69
-85
-95
-99
-96
-87
-72
-54
-36
-19
-7
-1
-3
-12
-29
-51
-75
-99
-119
-132
-137
-132
-116
-93
-63
-30
2
30
54
71
85
97
111
132
165
212
277
359
456
566
681
798
910
1013
1104
1182
1247
1299
1341
1374
1399
1415
1422
1416
1395
1358
1302
1227
1136
1030
913
792
669
552
443
344
258
185
125
77
40
13
-6
-18
-24
-27
-28
-28
-28
-31
-35
-42
-50
-59
-67
-73
-77
-76
-72
-65
-55
-46
-38
-33
-32
-37
-48
-63
-81
-99
-116
-128
-133
-131
-122
-106
-85
-63
-42
-26
-16
-15
-23
-41
-66
-95
-126
-155
-179
-194
-199
-194
-178
-154
-123
-91
-61
-35
-18
-12
-17
-33
-56
-83
-110
-134
-151
-158
-155
-142
-121
-96
-70
-48
-32
-25
-27
-38
-57
-79
-103
-123
-139
-147
-147
-138
-122
-103
-82
-64
-52
-47
-51
-64
-84
-107
-130
-149
-161
-164
-156
-138
-113
-84
-54
-28
-9
0
-1
-11
-29
-52
-77
-99
-117
-128
-131
-128
-119
-107
-94
-82
-74
-71
-73
-81
-92
-105
-119
-130
-137
-138
-133
-121
-103
-80
-56
-31
-10
6
15
15
7
-9
-30
-55
-81
-104
-122
-134
-137
-132
-120
-103
-82
-61
-42
-27
-17
-13
-16
-23
-33
-45
-56
-64
-70
-71
-68
-62
-54
-45
-38
-33
-31
-33
-38
-45
-54
-62
-68
-72
-72
-68
-60
-50
-37
-24
-12
-2
6
11
12
9
2
-8
-19
-31
-42
-49
-51
-48
-38
-23
-6
13
30
41
45
40
28
8
-16
-40
-61
-75
-81
-77
-65
-46
-23
0
20
34
41
40
31
16
-4
-25
-46
-63
-76
-82
-81
-73
-59
-40
-18
4
23
38
46
47
40
27
8
-11
-29
-42
-47
-42
-29
-7
19
48
74
94
105
107
98
80
57
31
7
-11
-21
-21
-11
7
31
57
83
103
115
117
109
93
69
42
14
-10
-27
-36
-35
-24
-7
15
37
57
72
78
76
66
49
29
8
-10
-23
-29
-28
-19
-7
8
23
33
38
34
22
3
-21
-48
-74
-96
-110
-114
-109
-95
-73
-47
-20
5
26
39
44
41
31
15
-6
-29
-52
-74
-92
-106
-115
-117
-112
-101
-85
-64
-43
-22
-5
6
11
7
-2
-14
-28
-39
-45
-43
-34
-18
1
22
40
51
54
48
32
10
-17
-44
-67
-85
-95
-96
-90
-78
-61
-44
-29
-17
-10
-8
-12
-20
-31
-43
-55
-64
-69
-69
-64
-54
-40
-23
-5
10
22
29
30
22
9
-10
-32
-55
-77
-94
-106
-110
-107
-97
-82
-63
-44
-27
-14
-7
-7
-14
-27
-42
-57
-69
-76
-75
-66
-51
-31
-9
11
26
31
28
14
-8
-35
-62
-87
-106
-115
-114
-103
-84
-59
-32
-7
12
23
23
14
-3
-26
-51
-76
-95
-108
-111
-106
-92
-73
-50
-28
-9
3
9
6
-4
-20
-40
-62
-82
-100
-112
-116
-114
-104
-88
-68
-45
-22
-3
11
17
15
5
-11
-32
-54
-74
-88
-95
-92
-82
-64
-44
-23
-6
5
6
-2
-19
-42
-68
-92
-112
-123
-125
-117
-102
-81
-58
-37
-20
-10
-8
-13
-23
-39
-56
-72
-88
-99
-107
-110
-109
-103
-93
-80
-65
-48
-32
-18
-10
-7
-12
-25
-44
-68
-92
-114
-131
-139
-136
-123
-102
-75
-46
-20
1
14
16
9
-6
-27
-51
-74
-94
-109
-118
-121
-118
-112
-102
-91
-80
-70
-61
-55
-50
-48
-46
-46
-47
-47
-46
-45
-42
-37
-32
-26
-20
-15
-12
-13
-16
-23
-33
-45
-58
-71
-81
-87
-89
-86
-78
-66
-52
-37
-25
-17
-15
-20
-31
-48
-68
-88
-105
-115
-117
-110
-94
-73
-50
-27
-10
-2
-3
-15
-35
-60
-87
-110
-127
-135
-133
-121
-101
-77
-52
-29
-13
-4
-4
-12
-27
-45
-65
-83
-96
-103
-102
-94
-79
-60
-39
-19
-2
9
14
11
2
-13
-30
-48
-65
-78
-86
-87
-83
-73
-59
-43
-26
-11
1
9
11
9
2
-8
-19
-29
-37
-40
-39
-32
-22
-8
6
20
32
41
45
45
41
35
28
20
14
10
8
10
14
21
29
37
43
46
45
40
31
18
3
-13
-27
-37
-42
-42
-36
-27
-16
-4
5
9
6
-3
-18
-39
-62
-87
-110
-128
-139
-141
-134
-117
-94
-67
-39
-14
4
13
12
0
-19
-43
-68
-88
-102
-108
-105
-96
-84
-70
-60
-56
-57
-65
-77
-90
-103
-113
-119
-120
-117
-112
-105
-98
-90
-82
-72
-61
-48
-34
-19
-6
3
6
2
-10
-28
-52
-77
-100
-118
-127
-125
-112
-88
-56
-17
23
63
101
135
165
195
225
262
307
365
438
527
629
742
860
979
1092
1194
1281
1351
1402
1435
1451
1449
1433
1403
1358
1301
1231
1150
1058
959
855
749
643
541
445
356
274
201
136
80
34
-3
-29
-45
-51
-48
-40
-28
-16
-7
-4
-8
-18
-33
-50
-67
-79
-85
-82
-70
-52
-31
-8
10
22
25
19
3
-20
-47
-74
-100
-120
-133
-138
-136
-128
-115
-100
-84
-71
-60
-56
-57
-65
-79
-98
-119
-141
-160
-173
-177
-171
-155
-130
-100
-68
-41
-21
-12
-15
-30
-54
-83
-112
-135
-150
-154
-146
-129
-106
-81
-59
-44
-39
-44
-59
-81
-107
-133
-155
-169
-175
-172
-159
-141
-118
-95
-75
-60
-51
-49
-53
-63
-76
-90
-102
-111
-115
-113
-107
-95
-81
-66
-52
-42
-37
-38
-46
-60
-79
-100
-121
-140
-154
-160
-158
-147
-129
-105
-77
-48
-21
0
14
20
16
4
-15
-37
-61
-83
-101
-113
-118
-115
-105
-90
-71
-51
-31
-15
-4
-1
-5
-17
-36
-61
-90
-118
-143
-161
-171
-169
-158
-136
-108
-78
-48
-24
-9
-3
-7
-18
-34
-49
-61
-67
-65
-55
-40
-22
-4
10
19
21
16
5
-9
-26
-42
-58
-71
-82
-90
-95
-98
-97
-93
-84
-72
-58
-42
-27
-14
-6
-4
-7
-15
-25
-35
-41
-42
-37
-24
-7
13
31
44
49
46
33
13
-11
-37
-59
-74
-83
-82
-74
-61
-45
-29
-16
-8
-5
-9
-17
-29
-43
-56
-67
-73
-74
-68
-56
-38
-15
9
31
50
61
65
58
43
21
-5
-31
-54
-69
-76
-72
-58
-37
-12
14
37
55
65
67
61
50
36
20
7
-1
-4
0
10
25
44
64
82
96
103
103
94
78
56
31
6
-15
-31
-38
-36
-24
-6
17
41
64
81
90
91
82
65
42
16
-10
-33
-49
-58
-58
-49
-35
-16
3
20
32
36
32
20
4
-16
-35
-51
-62
-66
-63
-54
-40
-23
-6
10
23
30
32
28
18
5
-11
-27
-41
-52
-56
-54
-46
-34
-20
-8
0
0
-9
-26
-51
-79
-106
-128
-141
-142
-131
-109
-78
-44
-9
22
46
60
64
59
47
30
11
-8
-25
-38
-48
-52
-52
-46
-37
-24
-9
5
17
26
27
22
10
-8
-30
-53
-72
-86
-91
-86
-72
-51
-28
-7
9
15
10
-8
-35
-68
-103
-134
-156
-165
-160
-141
-109
-69
-26
15
50
74
87
86
75
54
28
0
-27
-50
-67
-76
-77
-71
-59
-43
-26
-8
6
15
18
13
1
-18
-41
-66
-89
-107
-117
-117
-106
-87
-60
-31
-4
18
30
31
21
2
-23
-50
-74
-91
-98
-95
-81
-59
-34
-8
14
28
33
28
14
-7
-33
-59
-82
-100
-111
-114
-108
-96
-77
-54
-30
-8
11
24
29
25
12
-8
-35
-64
-92
-117
-135
-142
-139
-125
-101
-72
-40
-9
16
32
37
31
13
-13
-45
-78
-109
-133
-147
-149
-141
-122
-96
-67
-38
-14
3
10
7
-5
-22
-42
-61
-75
-82
-81
-72
-57
-39
-20
-4
6
7
1
-14
-34
-57
-80
-99
-111
-114
-108
-94
-73
-51
-30
-15
-9
-14
-32
-59
-92
-128
-161
-187
-200
-199
-183
-155
-118
-75
-33
5
35
55
62
58
44
23
-2
-28
-51
-70
-83
-88
-85
-75
-60
-42
-23
-7
4
7
3
-8
-26
-49
-71
-92
-106
-112
-108
-95
-76
-52
-28
-9
2
2
-9
-31
-60
-93
-125
-151
-166
-170
-161
-140
-110
-75
-39
-7
18
34
38
32
16
-6
-32
-57
-78
-93
-99
-96
-85
-68
-50
-32
-19
-14
-18
-32
-53
-79
-106
-131
-148
-157
-155
-144
-124
-98
-70
-42
-18
1
13
18
17
9
-4
-20
-39
-57
-73
-85
-91
-91
-83
-68
-49
-28
-6
13
26
31
29
19
4
-13
-30
-43
-49
-48
-39
-22
-1
23
46
64
76
79
72
59
38
15
-8
-28
-42
-48
-45
-35
-19
1
21
39
53
59
60
54
44
31
17
6
-3
-6
-6
0
9
20
31
40
47
49
45
36
22
4
-17
-38
-56
-70
-79
-81
-76
-65
-52
-38
-26
-18
-17
-24
-37
-55
-75
-95
-112
-123
-126
-120
-107
-87
-63
-39
-16
2
12
14
7
-8
-28
-52
-75
-94
-108
-114
-112
-104
-90
-74
-59
-47
-40
-40
-46
-57
-71
-86
-100
-111
-118
-120
-119
-115
-108
-99
-88
-77
-65
-53
-43
-35
-29
-27
-27
-30
-32
-33
-28
-15
6
38
79
128
184
244
307
370
433
497
563
631
702
778
858
942
1028
1115
1200
1281
1354
1416
1463
1491
1497
1478
1433
1363
1271
1162
1041
915
793
680
580
496
428
372
327
286
247
205
160
112
62
13
-31
-67
-93
-108
-111
-103
-87
-64
-39
-14
7
23
31
31
23
7
-13
-35
-56
-72
-83
-86
-82
-72
-59
-44
-32
-24
-21
-26
-37
-52
-69
-87
-104
-117
-127
-133
-135
-135
-133
-130
-126
-122
-119
-117
-116
-116
-117
-119
-121
-123
-123
-121
-117
-110
-99
-86
-71
-57
-45
-36
-32
-35
-44
-58
-78
-101
-124
-145
-162
-171
-173
-166
-151
-131
-107
-83
-64
-53
-50
-57
-72
-92
-114
-133
-146
-149
-142
-126
-102
-76
-50
-29
-16
-13
-20
-35
-55
-77
-97
-113
-123
-126
-122
-113
-102
-89
-78
-70
-66
-66
-72
-81
-92
-105
-117
-127
-132
-133
-129
-118
-103
-84
-63
-42
-25
-13
-8
-11
-22
-39
-59
-80
-98
-109
-113
-108
-95
-76
-54
-35
-21
-17
-23
-40
-65
-95
-125
-150
-167
-173
-166
-149
-123
-93
-61
-32
-9
6
13
12
3
-10
-28
-46
-65
-81
-94
-103
-106
-104
-96
-85
-71
-57
-46
-39
-38
-45
-58
-76
-95
-113
-127
-133
-129
-116
-93
-64
-32
-1
26
45
54
53
42
24
0
-24
-46
-63
-72
-74
-68
-58
-44
-31
-20
-14
-15
-22
-35
-51
-69
-87
-103
-114
-120
-120
-115
-103
-86
-66
-44
-22
-3
11
20
20
12
-3
-23
-47
-71
-91
-105
-110
-106
-93
-75
-54
-34
-18
-9
-10
-19
-36
-58
-83
-105
-123
-133
-133
-123
-105
-79
-48
-15
16
42
61
71
71
62
45
24
2
-18
-33
-40
-39
-30
-13
7
27
45
56
58
50
34
9
-19
-49
-75
-95
-104
-103
-90
-67
-37
-4
29
56
76
85
82
68
45
17
-13
-40
-61
-71
-72
-61
-43
-19
6
29
45
53
51
40
21
-3
-29
-53
-75
-90
-98
-99
-92
-78
-60
-40
-20
-3
8
13
9
-3
-20
-40
-59
-74
-81
-79
-68
-48
-24
0
19
30
29
16
-7
-37
-69
-98
-119
-130
-129
-115
-91
-61
-29
1
27
44
53
53
45
32
15
-4
-23
-40
-53
-61
-63
-60
-51
-39
-23
-7
8
18
22
20
10
-7
-29
-54
-79
-102
-120
-132
-136
-132
-122
-106
-86
-64
-43
-24
-10
-2
1
-2
-8
-16
-25
-30
-32
-29
-20
-7
9
23
35
41
39
29
12
-11
-37
-62
-83
-97
-103
-100
-89
-71
-51
-30
-12
1
6
5
-4
-17
-34
-51
-67
-78
-84
-83
-76
-63
-47
-28
-10
6
16
20
16
6
-10
-28
-48
-65
-77
-84
-83
-76
-63
-49
-34
-20
-12
-8
-11
-18
-30
-44
-60
-75
-88
-98
-105
-106
-103
-96
-84
-68
-50
-32
-15
-3
4
5
-1
-14
-30
-47
-62
-72
-76
-70
-57
-38
-17
3
18
25
22
9
-13
-42
-72
-99
-120
-132
-133
-122
-102
-76
-48
-21
0
13
15
7
-10
-34
-60
-86
-106
-120
-124
-118
-104
-84
-60
-36
-16
-2
3
-1
-15
-37
-62
-90
-114
-133
-143
-142
-131
-111
-84
-54
-25
-1
15
21
16
2
-20
-46
-71
-94
-110
-117
-115
-105
-88
-66
-42
-20
-2
10
15
12
2
-14
-35
-58
-80
-97
-109
-113
-108
-96
-78
-56
-34
-17
-5
-3
-10
-24
-45
-68
-90
-107
-117
-117
-108
-92
-70
-47
-26
-10
-1
-1
-9
-25
-45
-68
-90
-108
-120
-124
-119
-106
-86
-62
-38
-15
1
10
10
1
-16
-37
-60
-82
-98
-106
-105
-94
-75
-50
-23
3
24
37
39
31
12
-16
-50
-84
-116
-141
-156
-158
-148
-127
-98
-65
-33
-6
12
19
16
3
-18
-42
-66
-87
-101
-107
-106
-98
-84
-66
-47
-30
-16
-6
-1
-2
-8
-18
-29
-39
-47
-50
-47
-37
-21
0
22
44
61
72
75
69
55
37
18
0
-13
-20
-20
-13
-1
13
26
37
44
46
44
38
30
20
12
6
1
0
0
2
6
10
15
20
24
28
30
30
27
21
12
-1
-15
-32
-48
-64
-76
-84
-87
-86
-79
-70
-59
-50
-43
-42
-46
-56
-70
-86
-102
-114
-119
-116
-105
-86
-63
-38
-16
0
7
4
-8
-27
-50
-73
-92
-105
-111
-110
-104
-94
-83
-75
-69
-68
-72
-78
-85
-90
-94
-94
-91
-85
-77
-68
-59
-51
-44
-38
-33
-29
-25
-23
-23
-25
-30
-38
-48
-58
-66
-68
-60
-40
-5
46
114
197
292
394
500
606
709
805
895
978
1054
1125
1192
1256
1316
1372
1419
1456
1479
1483
1466
1427
1364
1281
1180
1065
943
819
699
586
485
397
322
260
209
168
134
104
79
56
35
17
2
-10
-16
-18
-15
-7
4
19
34
49
61
69
71
66
53
35
10
-17
-44
-69
-89
-102
-106
-101
-89
-71
-52
-35
-23
-20
-27
-45
-72
-106
-141
-175
-201
-217
-220
-209
-187
-156
-120
-84
-53
-30
-18
-19
-30
-51
-77
-103
-126
-143
-149
-146
-132
-110
-85
-59
-38
-26
-25
-36
-58
-89
-125
-160
-190
-210
-218
-211
-192
-161
-124
-86
-52
-24
-8
-3
-10
-27
-51
-77
-103
-124
-140
-148
-147
-140
-127
-111
-95
-81
-72
-68
-70
-78
-91
-106
-123
-138
-149
-155
-154
-145
-131
-111
-89
-66
-46
-31
-23
-23
-31
-46
-65
-87
-107
-123
-134
-137
-132
-121
-106
-90
-75
-64
-58
-58
-64
-74
-88
-101
-113
-122
-126
-124
-118
-108
-94
-79
-64
-51
-41
-34
-33
-37
-46
-60
-77
-95
-113
-127
-136
-139
-135
-123
-107
-87
-67
-47
-32
-21
-15
-16
-20
-29
-40
-52
-64
-75
-84
-91
-96
-97
-96
-92
-85
-77
-69
-61
-55
-53
-53
-56
-62
-68
-72
-74
-72
-65
-54
-41
-27
-15
-8
-7
-12
-23
-39
-57
-74
-89
-98
-100
-96
-86
-72
-55
-40
-27
-18
-15
-19
-29
-44
-63
-83
-101
-117
-127
-129
-123
-111
-92
-71
-50
-34
-24
-25
-35
-53
-77
-102
-125
-141
-147
-142
-128
-106
-82
-58
-40
-30
-30
-38
-52
-70
-87
-99
-104
-101
-91
-75
-55
-33
-12
6
20
29
34
34
30
21
9
-6
-22
-39
-53
-64
-69
-67
-59
-45
-26
-6
13
29
39
42
38
28
15
1
-13
-23
-28
-28
-22
-12
0
14
27
37
43
43
38
28
13
-5
-23
-40
-53
-61
-62
-56
-43
-26
-8
10
24
32
33
27
14
-3
-22
-41
-56
-66
-71
-69
-61
-49
-35
-20
-8
1
5
4
-4
-16
-33
-51
-69
-83
-92
-93
-87
-71
-50
-25
1
24
41
50
49
40
23
3
-19
-38
-51
-58
-57
-49
-37
-23
-10
0
4
1
-9
-24
-43
-63
-82
-97
-106
-108
-100
-85
-62
-35
-5
23
46
63
70
67
54
35
10
-14
-36
-52
-60
-58
-48
-32
-13
5
19
27
25
14
-5
-30
-56
-82
-104
-117
-122
-115
-99
-75
-46
-14
15
40
58
66
64
54
37
16
-5
-25
-40
-50
-55
-54
-51
-47
-43
-43
-45
-50
-57
-65
-72
-76
-77
-73
-67
-57
-45
-32
-18
-4
10
22
32
39
42
39
32
18
0
-20
-40
-57
-68
-72
-68
-57
-41
-23
-9
1
2
-6
-22
-44
-68
-91
-108
-118
-118
-108
-91
-67
-41
-14
10
29
43
49
48
41
28
10
-10
-31
-50
-64
-71
-71
-62
-45
-24
0
21
35
40
32
12
-19
-57
-97
-135
-163
-179
-180
-165
-138
-102
-62
-23
9
32
43
42
31
14
-7
-27
-44
-56
-62
-62
-57
-48
-38
-28
-18
-10
-4
-2
-2
-4
-10
-18
-29
-40
-51
-61
-67
-67
-63
-53
-39
-23
-6
7
15
15
8
-6
-24
-46
-65
-82
-91
-93
-88
-76
-60
-44
-29
-19
-15
-18
-27
-41
-56
-72
-84
-92
-92
-85
-72
-53
-32
-10
10
26
34
36
29
16
-3
-25
-47
-67
-82
-90
-91
-83
-69
-50
-28
-7
10
21
24
17
2
-22
-50
-79
-105
-125
-136
-136
-126
-106
-79
-48
-17
9
27
37
36
25
8
-14
-37
-57
-72
-79
-77
-67
-50
-30
-9
9
21
26
20
6
-16
-41
-67
-89
-104
-110
-107
-94
-75
-53
-31
-12
0
5
3
-5
-18
-32
-46
-57
-66
-72
-74
-74
-70
-64
-56
-45
-32
-17
-2
12
24
32
35
32
25
16
6
-2
-6
-4
5
21
41
62
83
99
108
108
98
80
55
27
0
-23
-37
-41
-34
-16
10
41
71
97
115
121
117
102
79
54
29
9
-2
-4
2
16
34
53
69
79
82
77
65
47
26
3
-18
-37
-52
-62
-68
-69
-66
-61
-55
-49
-45
-42
-42
-45
-50
-56
-63
-69
-73
-74
-71
-64
-53
-40
-26
-12
-2
5
7
4
-4
-16
-30
-46
-61
-74
-84
-90
-92
-91
-86
-79
-70
-62
-55
-50
-49
-50
-53
-59
-66
-72
-76
-77
-74
-67
-57
-43
-29
-15
-4
3
6
4
-2
-12
-23
-34
-41
-43
-37
-22
4
39
85
141
205
276
353
433
515
600
685
772
859
948
1039
1129
1219
1305
1385
1454
1508
1542
1551
1535
1491
1421
1329
1220
1102
981
864
757
665
587
522
467
417
368
315
255
189
117
45
-23
-80
-123
-146
-149
-132
-99
-55
-6
43
84
115
132
135
125
104
76
44
12
-16
-39
-54
-62
-62
-55
-43
-29
-14
-1
6
8
1
-13
-35
-61
-91
-119
-144
-163
-173
-174
-165
-150
-129
-108
-88
-72
-63
-62
-67
-77
-89
-101
-110
-114
-111
-102
-87
-69
-50
-33
-20
-13
-13
-20
-35
-53
-75
-96
-115
-129
-136
-135
-125
-109
-89
-66
-45
-28
-18
-17
-26
-44
-68
-97
-125
-150
-169
-179
-178
-167
-148
-122
-93
-65
-41
-23
-15
-15
-24
-40
-60
-81
-100
-116
-125
-127
-123
-112
-97
-80
-62
-48
-39
-35
-37
-46
-60
-76
-92
-105
-113
-114
-108
-94
-74
-52
-30
-12
-2
-1
-9
-27
-52
-80
-108
-131
-145
-150
-144
-129
-106
-80
-54
-33
-17
-10
-12
-20
-35
-52
-68
-82
-90
-91
-85
-72
-54
-34
-13
6
19
24
22
11
-7
-30
-54
-76
-93
-102
-101
-90
-72
-49
-25
-4
10
14
7
-10
-34
-63
-91
-115
-131
-136
-131
-115
-92
-63
-34
-6
17
33
41
40
32
18
-1
-23
-45
-64
-80
-89
-90
-83
-69
-49
-27
-6
11
20
19
7
-15
-43
-74
-104
-127
-141
-142
-132
-110
-82
-50
-19
7
25
33
30
19
2
-19
-41
-61
-76
-86
-89
-85
-74
-59
-40
-20
-1
14
24
28
24
14
-1
-19
-37
-51
-61
-63
-59
-48
-33
-17
-4
6
10
8
0
-11
-24
-36
-43
-45
-40
-28
-10
12
36
59
79
93
100
99
91
77
58
36
15
-2
-14
-19
-16
-7
8
27
44
59
68
69
61
47
26
1
-23
-45
-62
-71
-71
-63
-48
-28
-6
15
34
47
54
53
45
32
13
-7
-28
-45
-58
-65
-64
-56
-41
-20
3
27
48
62
67
63
47
23
-7
-41
-72
-96
-111
-113
-102
-81
-52
-19
12
36
51
55
48
32
10
-14
-36
-52
-61
-62
-56
-43
-26
-6
12
29
41
48
47
39
24
1
-27
-57
-87
-113
-133
-143
-142
-130
-109
-81
-51
-22
0
15
21
18
9
-3
-14
-22
-23
-17
-4
13
33
52
66
73
72
62
46
25
1
-22
-41
-55
-62
-62
-55
-43
-27
-10
6
19
27
29
25
16
2
-14
-30
-44
-54
-58
-56
-48
-35
-19
-3
12
21
25
22
12
-4
-23
-43
-62
-77
-85
-86
-79
-66
-47
-25
-2
18
34
43
44
36
19
-4
-32
-60
-86
-105
-115
-115
-104
-84
-57
-28
1
24
39
43
38
24
3
-21
-44
-64
-78
-84
-83
-74
-61
-44
-26
-10
2
9
10
4
-8
-23
-41
-58
-71
-79
-80
-73
-59
-40
-18
2
18
27
26
16
-2
-27
-53
-78
-98
-110
-112
-104
-86
-61
-34
-6
17
34
41
37
25
5
-20
-46
-69
-86
-95
-95
-87
-71
-52
-30
-11
4
12
14
8
-3
-18
-34
-50
-62
-70
-74
-73
-70
-63
-56
-48
-40
-34
-30
-27
-27
-29
-33
-38
-44
-50
-54
-54
-51
-42
-29
-13
5
21
34
40
38
27
8
-16
-44
-70
-92
-105
-108
-99
-81
-56
-27
1
23
37
40
32
14
-10
-36
-61
-81
-92
-93
-85
-69
-49
-29
-11
1
4
0
-11
-27
-44
-60
-73
-80
-81
-77
-69
-58
-47
-36
-27
-20
-15
-13
-13
-15
-19
-25
-33
-41
-50
-58
-65
-69
-68
-64
-56
-44
-32
-20
-11
-6
-6
-11
-21
-34
-47
-57
-63
-63
-56
-43
-27
-8
9
21
27
24
13
-5
-28
-53
-76
-94
-104
-104
-94
-76
-51
-23
6
32
52
65
69
65
53
36
16
-4
-21
-33
-37
-34
-23
-5
16
40
62
79
90
92
87
75
59
41
23
9
0
-2
2
11
23
37
50
62
69
73
72
67
59
48
37
26
16
10
7
7
12
19
28
36
43
46
45
39
28
13
-3
-19
-34
-45
-50
-50
-45
-36
-24
-11
1
10
15
16
10
0
-13
-28
-43
-56
-65
-69
-67
-59
-47
-32
-16
-2
7
10
6
-5
-22
-43
-65
-85
-99
-107
-106
-96
-80
-57
-33
-9
10
22
25
18
3
-18
-43
-67
-87
-100
-103
-97
-82
-61
-36
-12
7
19
22
17
3
-16
-37
-56
-69
-73
-67
-48
-16
27
79
139
204
271
338
405
469
531
593
654
717
784
857
936
1022
1113
1208
1302
1390
1466
1524
1558
1564
1538
1481
1395
1284
1155
1017
879
748
633
536
461
404
362
329
297
262
218
165
104
39
-25
-81
-123
-146
-148
-132
-99
-56
-9
35
71
96
106
102
87
62
32
1
-28
-51
-65
-71
-66
-54
-35
-12
9
25
32
28
12
-14
-49
-87
-124
-153
-171
-174
-162
-136
-101
-60
-21
11
33
41
35
15
-14
-49
-85
-118
-143
-157
-159
-149
-129
-101
-69
-37
-9
12
22
21
10
-11
-37
-66
-93
-115
-128
-132
-125
-109
-88
-62
-38
-16
-1
6
4
-7
-25
-49
-76
-102
-124
-139
-146
-144
-131
-111
-85
-57
-30
-9
5
8
3
-12
-32
-54
-75
-91
-100
-100
-91
-76
-56
-37
-19
-8
-4
-8
-19
-35
-54
-71
-85
-92
-92
-85
-71
-54
-37
-22
-12
-9
-13
-24
-41
-61
-80
-96
-106
-109
-104
-92
-73
-50
-26
-3
17
31
39
39
32
18
-1
-21
-42
-60
-73
-79
-78
-69
-54
-34
-13
7
22
32
33
26
11
-9
-32
-54
-73
-85
-89
-83
-69
-48
-23
5
32
54
69
76
73
62
45
23
0
-19
-34
-40
-37
-24
-5
18
40
57
65
61
43
14
-24
-65
-103
-133
-148
-147
-128
-92
-46
7
59
104
138
157
159
148
124
94
61
30
6
-10
-16
-12
1
19
39
60
77
88
93
90
80
64
44
23
3
-13
-24
-28
-25
-15
0
20
41
62
81
94
102
102
96
83
66
47
30
16
8
9
19
36
60
86
110
130
142
144
137
121
99
75
53
35
24
21
24
33
45
56
65
69
69
63
54
43
33
24
17
14
15
19
27
37
49
62
76
90
102
110
112
108
96
77
51
23
-5
-30
-47
-54
-50
-35
-12
15
43
65
79
82
73
54
27
-3
-31
-54
-68
-70
-63
-47
-26
-4
16
30
35
33
23
8
-8
-22
-32
-36
-32
-23
-9
7
22
35
43
45
42
34
23
9
-5
-18
-29
-36
-40
-39
-34
-24
-11
5
22
38
51
59
61
55
42
22
-2
-28
-53
-73
-86
-91
-86
-73
-54
-30
-5
17
34
44
46
39
26
8
-11
-28
-39
-43
-39
-27
-8
14
36
54
65
66
57
38
12
-18
-47
-73
-91
-98
-95
-81
-58
-31
-1
26
48
62
66
61
48
29
8
-12
-29
-40
-44
-40
-31
-18
-5
7
14
14
7
-8
-28
-51
-75
-95
-110
-116
-113
-100
-78
-49
-17
17
47
72
89
96
93
80
61
37
12
-11
-29
-40
-44
-39
-28
-12
5
22
35
42
41
32
15
-7
-32
-55
-74
-86
-89
-82
-67
-46
-22
0
16
24
22
10
-11
-36
-61
-84
-99
-104
-100
-87
-66
-41
-14
10
29
41
46
43
33
17
-3
-25
-46
-66
-81
-89
-90
-82
-67
-46
-20
7
32
51
62
63
53
33
4
-30
-64
-95
-120
-134
-135
-125
-103
-73
-39
-4
26
48
59
59
48
28
3
-21
-42
-55
-58
-50
-35
-13
10
31
46
51
45
30
8
-19
-47
-71
-89
-98
-98
-90
-76
-58
-40
-23
-11
-4
-3
-8
-17
-29
-42
-53
-60
-62
-59
-50
-35
-17
4
24
41
52
56
52
39
18
-7
-33
-58
-78
-90
-93
-88
-75
-56
-35
-13
6
20
29
31
27
17
3
-14
-33
-52
-69
-82
-91
-94
-91
-81
-66
-49
-31
-16
-5
-2
-5
-14
-28
-42
-54
-60
-59
-51
-35
-14
10
31
49
59
60
53
39
19
-2
-23
-41
-53
-59
-58
-51
-39
-24
-9
5
15
21
22
17
7
-6
-21
-36
-48
-56
-57
-53
-44
-31
-15
0
12
20
23
20
13
2
-10
-20
-28
-30
-25
-14
3
24
47
69
87
98
101
95
81
61
37
13
-7
-20
-25
-19
-5
17
42
68
89
104
110
106
94
76
55
35
20
12
13
22
39
61
83
102
117
123
120
108
89
64
37
11
-13
-32
-43
-48
-46
-37
-23
-4
16
36
53
63
65
56
36
5
-33
-75
-115
-148
-169
-174
-162
-133
-92
-45
3
45
74
89
87
70
43
10
-22
-49
-68
-76
-74
-64
-47
-27
-8
8
19
23
20
11
-3
-21
-41
-60
-77
-88
-92
-88
-75
-56
-31
-6
17
35
44
43
33
15
-6
-27
-42
-48
-42
-22
10
53
103
158
213
267
318
367
416
466
521
585
657
740
834
937
1046
1157
1265
1366
1455
1526
1577
1602
1600
1570
1514
1432
1330
1212
1085
956
831
716
613
526
452
390
336
285
235
183
127
69
11
-41
-84
-113
-126
-120
-99
-63
-19
27
71
106
129
138
133
115
89
58
27
-1
-23
-36
-40
-36
-26
-11
4
16
23
22
14
-3
-27
-55
-85
-111
-133
-145
-147
-138
-118
-92
-60
-27
2
24
37
39
31
13
-10
-36
-61
-82
-97
-104
-103
-96
-83
-68
-51
-36
-24
-15
-11
-12
-19
-31
-47
-68
-92
-117
-140
-159
-172
-176
-169
-153
-129
-100
-70
-43
-22
-11
-9
-15
-27
-41
-53
-59
-59
-50
-36
-18
1
16
24
25
17
2
-18
-40
-60
-76
-85
-87
-82
-71
-56
-39
-24
-13
-8
-8
-16
-29
-46
-66
-85
-100
-110
-113
-107
-95
-75
-52
-27
-4
14
24
27
21
8
-10
-31
-51
-68
-80
-84
-81
-71
-56
-38
-19
-2
12
20
21
15
2
-17
-41
-67
-94
-119
-140
-153
-158
-153
-138
-115
-86
-53
-22
6
27
41
45
43
35
26
18
14
15
22
35
50
65
77
82
81
71
54
32
7
-15
-34
-45
-49
-45
-34
-18
-1
16
29
37
39
35
25
11
-5
-21
-34
-44
-48
-46
-38
-25
-8
9
26
40
49
53
50
43
31
16
2
-11
-21
-28
-31
-29
-24
-17
-10
-2
4
7
7
4
-4
-14
-27
-39
-50
-57
-59
-53
-41
-22
3
30
57
80
97
105
104
94
77
54
29
4
-18
-34
-44
-46
-41
-30
-15
3
21
37
50
58
61
60
56
50
46
44
46
54
67
84
102
119
133
140
140
131
115
94
70
46
25
11
3
4
11
23
38
53
64
71
71
63
50
32
12
-8
-23
-34
-36
-31
-19
0
21
43
62
76
83
81
72
56
36
15
-5
-21
-31
-33
-28
-16
1
20
39
55
66
71
68
57
39
17
-7
-31
-51
-65
-71
-70
-61
-46
-27
-8
8
20
24
22
13
-1
-18
-36
-50
-59
-61
-56
-44
-26
-4
19
41
58
68
68
58
38
11
-22
-55
-86
-108
-120
-119
-106
-80
-47
-10
24
53
72
80
76
61
40
16
-7
-26
-39
-45
-43
-35
-21
-5
11
27
39
47
48
42
27
4
-27
-62
-99
-133
-158
-172
-169
-151
-117
-71
-19
32
75
104
116
109
87
54
17
-18
-44
-57
-55
-40
-15
15
43
65
74
71
56
30
-2
-35
-64
-85
-96
-95
-84
-65
-40
-14
10
31
44
50
47
37
19
-3
-28
-53
-74
-90
-97
-94
-82
-62
-37
-9
16
34
44
42
29
8
-19
-47
-71
-87
-94
-90
-76
-54
-28
-2
20
36
44
44
36
23
5
-14
-34
-50
-64
-73
-77
-76
-69
-59
-47
-34
-22
-13
-9
-12
-19
-32
-47
-61
-73
-79
-79
-70
-55
-36
-16
3
16
22
20
9
-9
-31
-55
-77
-95
-108
-112
-109
-100
-84
-65
-45
-26
-10
1
6
4
-4
-16
-32
-49
-63
-73
-76
-70
-58
-40
-18
3
20
31
31
22
5
-18
-42
-63
-78
-83
-79
-66
-50
-32
-19
-13
-17
-32
-54
-83
-111
-136
-153
-160
-156
-142
-120
-93
-63
-34
-8
14
31
42
48
49
45
36
21
3
-17
-37
-55
-68
-75
-74
-65
-51
-33
-14
1
11
14
10
-2
-17
-35
-52
-64
-72
-74
-71
-63
-53
-42
-33
-27
-24
-27
-33
-42
-55
-70
-85
-99
-110
-117
-119
-114
-102
-84
-60
-35
-10
11
25
32
29
17
-1
-23
-45
-65
-80
-88
-89
-84
-73
-60
-47
-37
-30
-28
-32
-40
-52
-66
-80
-93
-102
-106
-105
-98
-84
-66
-46
-24
-6
9
16
17
11
-1
-17
-34
-50
-62
-69
-71
-66
-57
-45
-31
-17
-5
5
11
14
13
11
8
5
3
2
4
9
15
24
34
45
54
61
65
66
62
55
46
34
23
14
7
4
7
13
24
38
54
69
82
89
91
85
73
54
33
10
-10
-25
-31
-28
-16
4
29
53
74
87
89
80
60
33
1
-31
-59
-78
-87
-85
-74
-55
-33
-10
10
24
30
26
13
-8
-36
-66
-98
-126
-147
-160
-161
-151
-129
-99
-65
-31
-1
19
27
20
1
-27
-59
-90
-114
-128
-129
-117
-96
-69
-41
-18
-4
1
-5
-19
-38
-58
-74
-86
-90
-88
-81
-71
-60
-51
-44
-41
-41
-42
-44
-45
-45
-43
-39
-34
-27
-18
-6
10
32
61
98
144
200
265
337
414
495
579
663
746
828
909
990
1071
1152
1232
1310
1384
1449
1501
1534
1545
1529
1484
1412
1316
1201
1074
943
816
700
599
515
448
395
352
314
277
239
196
150
102
54
10
-28
-58
-76
-84
-82
-70
-51
-27
-2
23
43
58
65
63
53
36
15
-8
-30
-48
-59
-64
-61
-54
-44
-34
-28
-26
-32
-43
-60
-80
-101
-120
-134
-142
-144
-139
-130
-116
-102
-87
-75
-65
-59
-56
-58
-63
-70
-79
-89
-97
-103
-106
-105
-99
-89
-75
-60
-46
-34
-28
-27
-33
-45
-62
-82
-103
-122
-137
-146
-148
-143
-134
-120
-105
-90
-78
-69
-65
-66
-72
-81
-93
-104
-114
-122
-125
-124
-119
-109
-97
-85
-73
-64
-59
-59
-63
-71
-82
-93
-102
-108
-109
-104
-94
-78
-60
-41
-24
-11
-7
-11
-26
-50
-82
-117
-153
-183
-205
-213
-207
-186
-152
-111
-67
-27
5
24
28
16
-8
-39
-73
-103
-126
-137
-136
-123
-102
-75
-48
-23
-5
4
4
-5
-20
-41
-64
-87
-108
-124
-135
-139
-135
-124
-108
-87
-63
-40
-21
-7
0
-1
-10
-23
-38
-53
-65
-71
-70
-63
-51
-36
-21
-8
0
2
-1
-9
-21
-34
-48
-60
-69
-76
-80
-82
-81
-80
-77
-74
-71
-69
-68
-67
-67
-68
-70
-71
-70
-68
-62
-53
-40
-24
-8
8
20
28
29
23
9
-11
-35
-60
-84
-102
-112
-113
-104
-85
-60
-32
-7
12
19
13
-8
-43
-88
-137
-182
-219
-240
-242
-223
-187
-137
-80
-24
25
61
80
81
66
39
6
-28
-56
-76
-85
-82
-69
-49
-25
-2
18
33
41
42
37
28
16
3
-9
-19
-27
-32
-36
-38
-39
-40
-40
-40
-40
-38
-36
-33
-30
-26
-21
-15
-9
-2
6
17
29
42
55
68
78
84
85
79
67
49
29
7
-14
-30
-41
-45
-42
-33
-20
-5
10
22
30
32
29
19
5
-14
-35
-57
-79
-99
-114
-125
-129
-126
-116
-101
-81
-59
-38
-18
-4
5
9
7
3
-2
-6
-7
-4
2
11
21
29
34
33
26
12
-5
-26
-46
-63
-74
-79
-76
-66
-50
-30
-9
10
23
31
30
21
4
-17
-41
-63
-81
-92
-94
-86
-70
-48
-22
3
22
35
38
30
14
-9
-35
-60
-81
-94
-97
-91
-77
-56
-33
-10
9
23
29
28
21
9
-6
-21
-35
-46
-55
-61
-64
-66
-67
-67
-67
-66
-65
-63
-60
-57
-53
-50
-46
-43
-40
-37
-34
-28
-20
-10
2
15
27
36
42
41
34
21
4
-17
-38
-55
-67
-72
-69
-57
-40
-18
4
23
37
43
39
26
6
-18
-44
-67
-84
-91
-88
-75
-53
-27
0
23
37
39
27
2
-33
-75
-117
-155
-182
-194
-191
-171
-137
-94
-47
-1
38
65
79
78
65
43
14
-15
-42
-62
-75
-78
-72
-59
-40
-20
0
15
25
27
21
7
-13
-37
-61
-82
-96
-102
-98
-86
-66
-43
-20
-1
9
9
-3
-25
-54
-87
-119
-145
-163
-170
-165
-149
-124
-95
-62
-31
-4
17
32
38
36
26
11
-9
-32
-56
-78
-95
-107
-112
-109
-100
-85
-67
-49
-34
-24
-19
-21
-29
-39
-50
-59
-63
-62
-54
-41
-25
-8
7
17
20
17
7
-7
-26
-45
-63
-78
-88
-93
-92
-86
-74
-57
-37
-14
6
24
34
34
22
-3
-39
-84
-132
-177
-211
-230
-228
-206
-166
-112
-53
4
50
80
90
81
56
22
-16
-49
-72
-82
-78
-62
-38
-11
12
29
36
32
18
-2
-26
-48
-67
-80
-84
-81
-71
-56
-38
-21
-7
2
5
1
-11
-31
-55
-82
-109
-133
-151
-160
-159
-146
-122
-91
-54
-17
17
42
57
58
48
27
0
-29
-55
-74
-83
-81
-70
-51
-29
-7
10
20
21
14
-2
-23
-46
-69
-88
-101
-106
-104
-94
-77
-54
-27
0
27
50
67
76
76
68
52
33
11
-7
-19
-21
-13
4
29
57
82
100
106
97
74
39
-4
-47
-85
-111
-120
-112
-85
-44
5
58
106
144
169
178
171
151
122
87
52
20
-6
-22
-29
-27
-17
-1
17
35
50
58
59
51
34
11
-16
-43
-68
-86
-96
-96
-88
-72
-52
-33
-18
-10
-11
-22
-42
-67
-95
-120
-140
-151
-150
-139
-118
-90
-59
-27
0
20
32
34
27
12
-9
-33
-56
-76
-91
-99
-100
-94
-81
-63
-42
-21
-3
10
17
16
8
-7
-28
-51
-73
-92
-106
-112
-110
-100
-83
-60
-35
-10
14
34
51
65
80
97
120
156
205
273
359
463
582
710
844
975
1098
1207
1299
1370
1422
1455
1470
1471
1458
1434
1400
1355
1300
1234
1159
1075
986
893
798
706
616
530
450
374
303
238
178
126
83
50
29
19
20
29
42
55
64
66
60
45
24
0
-23
-42
-52
-52
-42
-24
-3
19
38
48
49
40
22
-3
-32
-60
-84
-102
-110
-110
-100
-84
-64
-43
-25
-12
-8
-14
-31
-57
-90
-127
-162
-192
-212
-219
-211
-189
-155
-114
-71
-31
-1
17
21
11
-10
-39
-69
-96
-115
-125
-124
-114
-97
-76
-56
-40
-31
-28
-32
-41
-54
-68
-82
-94
-105
-114
-123
-132
-141
-149
-156
-160
-160
-155
-144
-128
-108
-88
-68
-53
-43
-39
-40
-43
-47
-50
-49
-43
-34
-23
-11
-3
1
-2
-11
-27
-47
-68
-87
-100
-106
-103
-90
-70
-46
-19
4
21
28
23
5
-23
-60
-101
-141
-175
-198
-207
-201
-181
-149
-110
-68
-30
0
20
28
25
13
-5
-24
-41
-53
-58
-56
-46
-31
-14
4
17
25
25
17
0
-23
-51
-79
-105
-123
-133
-131
-118
-95
-65
-32
0
26
42
46
40
23
-1
-28
-52
-71
-82
-82
-71
-53
-28
-2
22
42
53
57
51
39
21
1
-20
-39
-54
-63
-67
-64
-56
-43
-28
-12
4
16
24
25
19
7
-10
-31
-53
-73
-89
-98
-99
-92
-76
-55
-31
-8
11
24
28
23
10
-9
-30
-50
-66
-75
-75
-68
-54
-36
-18
-2
9
13
10
0
-14
-30
-45
-57
-65
-66
-61
-51
-37
-21
-6
8
18
23
23
19
9
-2
-15
-27
-35
-39
-37
-29
-15
2
21
39
54
64
67
64
55
41
24
8
-6
-16
-20
-18
-10
3
19
36
52
64
71
72
65
53
36
17
-2
-17
-27
-29
-24
-12
4
22
40
55
64
68
66
59
47
33
17
3
-10
-20
-26
-28
-26
-20
-11
0
11
21
27
29
25
16
2
-15
-31
-45
-54
-56
-49
-36
-17
5
27
44
56
59
54
41
22
-1
-24
-45
-60
-70
-72
-66
-56
-41
-25
-10
2
9
11
7
-2
-12
-24
-33
-40
-42
-39
-32
-22
-9
3
14
23
27
27
21
11
-3
-19
-38
-56
-72
-83
-89
-87
-78
-61
-39
-15
10
30
44
49
45
31
10
-15
-39
-60
-72
-75
-68
-51
-27
1
27
47
59
60
50
30
2
-28
-56
-79
-92
-93
-82
-60
-32
0
30
55
70
74
67
51
27
0
-27
-50
-66
-76
-77
-71
-61
-47
-32
-18
-8
-1
1
-2
-8
-18
-30
-42
-54
-61
-65
-62
-53
-39
-20
1
20
36
45
46
39
24
4
-19
-42
-60
-72
-77
-72
-60
-43
-24
-5
10
18
17
6
-13
-38
-68
-98
-124
-144
-153
-151
-138
-114
-81
-44
-5
29
57
74
80
73
55
29
-4
-37
-67
-91
-104
-107
-99
-81
-55
-27
0
22
35
39
31
15
-8
-33
-55
-73
-83
-83
-74
-57
-37
-15
5
19
26
24
15
0
-20
-41
-62
-79
-91
-96
-96
-89
-76
-61
-45
-31
-20
-14
-15
-21
-33
-48
-64
-79
-89
-94
-92
-84
-71
-55
-37
-20
-7
0
1
-6
-20
-40
-64
-89
-113
-132
-144
-148
-142
-127
-104
-77
-47
-20
2
17
23
20
10
-6
-23
-41
-55
-63
-65
-62
-53
-42
-31
-22
-16
-16
-21
-31
-46
-62
-80
-96
-109
-117
-120
-117
-108
-94
-77
-59
-41
-26
-15
-11
-14
-22
-35
-51
-66
-79
-87
-89
-84
-73
-59
-42
-27
-14
-6
-5
-10
-21
-35
-51
-67
-81
-91
-98
-100
-100
-97
-93
-90
-89
-90
-93
-98
-105
-112
-120
-125
-127
-125
-118
-107
-91
-73
-53
-34
-17
-5
1
0
-7
-21
-38
-57
-77
-93
-105
-112
-111
-104
-92
-75
-56
-37
-21
-11
-8
-14
-30
-54
-84
-117
-148
-174
-190
-192
-181
-154
-117
-71
-23
20
56
80
89
84
68
46
21
-2
-18
-25
-22
-12
4
23
40
52
57
55
45
29
10
-11
-32
-49
-62
-69
-70
-66
-56
-42
-26
-9
7
20
27
28
22
9
-9
-31
-53
-73
-88
-96
-96
-89
-77
-61
-46
-35
-30
-33
-44
-62
-85
-109
-131
-148
-156
-156
-148
-132
-114
-95
-80
-71
-70
-77
-91
-109
-129
-147
-160
-166
-164
-154
-137
-115
-92
-70
-52
-40
-35
-38
-47
-62
-80
-100
-119
-136
-149
-156
-158
-154
-145
-133
-119
-106
-95
-88
-87
-92
-103
-118
-136
-152
-165
-171
-168
-155
-131
-97
-57
-11
35
79
119
155
185
213
241
272
312
363
429
511
608
718
838
962
1084
1197
1295
1372
1426
1454
1455
1431
1386
1323
1248
1165
1080
996
915
840
770
703
638
571
503
430
354
275
196
120
50
-10
-58
-93
-113
-120
-116
-105
-89
-72
-58
-49
-46
-50
-59
-73
-87
-100
-109
-112
-109
-100
-86
-68
-51
-37
-28
-28
-36
-53
-77
-105
-134
-161
-181
-192
-192
-182
-161
-134
-105
-78
-58
-51
-58
-80
-115
-160
-209
-255
-293
-316
-321
-306
-274
-229
-177
-124
-78
-44
-25
-22
-35
-59
-90
-122
-151
-173
-186
-188
-182
-168
-149
-129
-109
-92
-80
-73
-73
-80
-93
-111
-133
-158
-184
-208
-227
-240
-245
-241
-229
-209
-185
-160
-137
-118
-106
-102
-105
-114
-125
-137
-145
-148
-145
-136
-121
-105
-89
-76
-70
-72
-81
-98
-120
-145
-168
-187
-200
-204
-200
-188
-170
-149
-128
-109
-94
-87
-85
-90
-100
-113
-126
-136
-144
-146
-143
-135
-122
-108
-93
-79
-68
-62
-62
-67
-79
-97
-119
-145
-171
-195
-214
-226
-229
-220
-202
-175
-142
-108
-77
-52
-37
-34
-43
-61
-84
-109
-130
-143
-146
-137
-118
-93
-64
-38
-18
-8
-9
-21
-43
-71
-100
-127
-147
-157
-158
-149
-133
-111
-88
-67
-51
-42
-41
-48
-61
-78
-96
-113
-126
-133
-133
-126
-113
-96
-77
-58
-41
-29
-23
-24
-32
-46
-64
-84
-104
-122
-135
-143
-144
-140
-131
-119
-107
-95
-86
-81
-81
-84
-91
-98
-105
-109
-110
-105
-96
-82
-65
-47
-31
-18
-9
-6
-9
-18
-31
-46
-61
-75
-85
-90
-90
-85
-76
-65
-53
-44
-38
-38
-42
-51
-64
-79
-93
-104
-110
-109
-100
-85
-64
-39
-14
9
28
40
46
45
38
26
11
-6
-21
-35
-46
-53
-58
-59
-58
-55
-51
-45
-39
-34
-29
-28
-28
-33
-40
-49
-59
-68
-75
-78
-77
-69
-58
-43
-28
-15
-5
-2
-6
-16
-33
-53
-75
-96
-113
-124
-129
-127
-118
-106
-91
-76
-64
-57
-55
-60
-71
-87
-104
-121
-135
-142
-141
-132
-115
-93
-68
-45
-27
-16
-14
-20
-33
-49
-66
-81
-91
-95
-94
-90
-85
-82
-84
-90
-101
-116
-133
-147
-156
-160
-157
-148
-135
-119
-102
-85
-71
-58
-48
-39
-31
-24
-20
-18
-20
-27
-38
-54
-72
-91
-109
-123
-131
-133
-129
-121
-110
-99
-90
-85
-83
-85
-91
-97
-104
-109
-111
-110
-104
-95
-84
-70
-56
-42
-32
-25
-23
-27
-37
-51
-69
-88
-106
-121
-130
-132
-127
-114
-96
-75
-53
-34
-21
-16
-21
-35
-57
-84
-114
-141
-162
-174
-174
-164
-144
-117
-88
-59
-35
-20
-16
-21
-35
-55
-78
-99
-116
-126
-130
-126
-117
-104
-91
-79
-71
-68
-70
-79
-92
-110
-129
-147
-162
-171
-172
-165
-148
-124
-96
-66
-39
-18
-7
-6
-17
-36
-62
-90
-117
-138
-151
-155
-150
-136
-118
-97
-78
-61
-50
-46
-48
-56
-70
-86
-104
-121
-135
-143
-146
-141
-129
-112
-90
-68
-48
-33
-27
-31
-46
-71
-103
-138
-170
-196
-211
-213
-201
-177
-143
-103
-64
-31
-7
5
3
-10
-34
-63
-93
-120
-140
-150
-149
-139
-120
-97
-73
-53
-39
-36
-43
-61
-86
-116
-146
-172
-190
-197
-192
-176
-152
-121
-89
-59
-36
-20
-14
-18
-29
-46
-66
-86
-104
-118
-125
-127
-121
-111
-96
-79
-63
-50
-43
-43
-52
-69
-93
-122
-152
-179
-201
-213
-214
-203
-181
-151
-116
-81
-49
-25
-10
-7
-13
-28
-48
-70
-90
-106
-115
-117
-112
-101
-87
-72
-58
-47
-41
-40
-46
-56
-71
-89
-107
-124
-140
-151
-156
-156
-150
-139
-123
-106
-89
-74
-64
-60
-62
-69
-81
-93
-104
-111
-113
-107
-96
-79
-60
-42
-27
-18
-17
-23
-36
-54
-73
-91
-106
-117
-122
-121
-116
-109
-100
-92
-86
-82
-81
-81
-83
-85
-85
-84
-80
-73
-63
-49
-34
-16
2
19
35
47
54
55
49
36
18
-2
-23
-42
-55
-60
-57
-45
-27
-6
16
35
47
52
47
35
16
-7
-30
-51
-66
-75
-77
-72
-62
-48
-33
-20
-11
-8
-11
-21
-38
-60
-85
-110
-133
-150
-159
-159
-149
-132
-108
-81
-55
-32
-16
-9
-12
-23
-42
-65
-90
-113
-132
-144
-149
-146
-137
-123
-107
-90
-76
-67
-64
-67
-77
-91
-107
-122
-134
-140
-140
-131
-117
-99
-80
-63
-53
-51
-58
-74
-96
-121
-146
-167
-181
-186
-181
-167
-146
-121
-94
-68
-46
-28
-16
-8
-3
0
4
12
26
47
78
118
168
228
296
370
449
532
617
701
785
866
945
1021
1094
1163
1228
1287
1339
1382
1414
1430
1428
1405
1359
1289
1197
1085
957
820
681
546
422
315
226
156
106
70
47
31
19
7
-8
-25
-45
-67
-89
-110
-127
-139
-144
-143
-134
-119
-100
-78
-55
-35
-19
-11
-10
-19
-35
-56
-82
-107
-129
-145
-154
-155
-149
-135
-118
-99
-81
-66
-57
-54
-58
-66
-80
-95
-110
-123
-133
-137
-136
-129
-119
-107
-94
-84
-77
-77
-83
-95
-112
-132
-153
-171
-185
-191
-189
-179
-161
-138
-111
-86
-65
-51
-46
-51
-66
-88
-115
-143
-168
-187
-196
-193
-179
-156
-127
-95
-66
-43
-31
-31
-42
-62
-88
-114
-138
-154
-160
-155
-142
-122
-101
-84
-72
-71
-81
-101
-128
-157
-184
-205
-216
-215
-201
-177
-145
-109
-73
-42
-18
-4
-1
-8
-24
-45
-70
-94
-115
-130
-139
-141
-137
-127
-113
-99
-86
-76
-70
-70
-74
-83
-93
-104
-113
-119
-121
-117
-108
-95
-79
-61
-43
-28
-15
-7
-4
-5
-11
-21
-34
-47
-61
-74
-84
-91
-94
-94
-89
-81
-71
-60
-48
-39
-34
-32
-36
-45
-57
-72
-86
-98
-103
-101
-91
-73
-50
-23
3
24
38
42
36
20
-1
-26
-48
-66
-75
-74
-64
-48
-29
-11
2
7
2
-12
-34
-61
-89
-112
-128
-134
-128
-111
-85
-53
-17
17
47
70
85
88
83
68
48
25
1
-20
-36
-46
-47
-41
-29
-13
4
20
31
36
32
19
-1
-27
-55
-82
-104
-118
-122
-114
-94
-63
-26
14
52
84
105
114
110
95
72
44
17
-5
-18
-20
-11
7
31
57
81
98
107
106
95
76
51
24
-2
-24
-40
-49
-49
-43
-32
-16
0
16
29
39
43
44
40
33
24
13
4
-5
-11
-16
-19
-22
-23
-26
-29
-34
-40
-48
-56
-64
-71
-77
-79
-77
-70
-59
-45
-27
-8
10
24
35
38
35
25
10
-10
-30
-49
-65
-76
-83
-84
-83
-80
-77
-75
-76
-79
-84
-89
-94
-97
-98
-96
-91
-84
-76
-65
-54
-41
-27
-13
1
14
23
28
26
17
2
-18
-41
-63
-81
-93
-95
-89
-75
-56
-37
-19
-8
-5
-12
-27
-48
-73
-97
-116
-129
-133
-128
-114
-94
-71
-46
-22
-3
11
18
19
13
3
-11
-27
-43
-58
-70
-79
-85
-87
-85
-81
-75
-68
-62
-57
-54
-53
-54
-58
-63
-68
-71
-71
-67
-59
-46
-31
-14
2
15
22
23
17
5
-11
-31
-49
-66
-79
-87
-89
-88
-83
-76
-69
-62
-57
-53
-50
-49
-49
-50
-52
-54
-57
-59
-60
-59
-56
-49
-41
-32
-22
-15
-12
-16
-26
-44
-66
-91
-116
-136
-148
-150
-142
-123
-97
-67
-37
-11
7
16
14
3
-15
-37
-59
-78
-92
-99
-100
-94
-84
-72
-59
-47
-38
-33
-33
-37
-46
-57
-72
-87
-101
-113
-121
-124
-120
-110
-94
-74
-53
-32
-16
-5
-1
-6
-17
-33
-50
-66
-78
-83
-81
-72
-57
-39
-21
-7
1
2
-5
-17
-34
-51
-66
-78
-85
-87
-86
-83
-81
-82
-87
-94
-104
-115
-124
-131
-132
-129
-122
-112
-102
-91
-81
-71
-62
-52
-42
-30
-18
-7
1
5
3
-6
-21
-40
-61
-80
-95
-104
-105
-100
-91
-81
-72
-68
-70
-80
-96
-115
-136
-153
-164
-166
-159
-143
-119
-89
-57
-26
0
19
30
32
24
9
-11
-34
-58
-80
-97
-107
-111
-107
-96
-80
-61
-41
-23
-9
-2
-3
-11
-27
-48
-71
-94
-111
-122
-123
-116
-102
-81
-58
-35
-17
-5
-1
-4
-14
-28
-44
-60
-74
-85
-91
-94
-94
-92
-88
-85
-81
-78
-76
-74
-75
-76
-79
-84
-88
-92
-93
-92
-87
-76
-62
-44
-24
-5
11
21
25
20
9
-9
-31
-54
-75
-93
-104
-109
-107
-98
-84
-66
-47
-29
-13
-2
3
4
-1
-8
-17
-26
-30
-29
-21
-7
14
38
62
83
96
101
95
80
56
29
1
-23
-40
-48
-47
-38
-23
-6
11
24
31
32
27
17
6
-5
-13
-18
-19
-17
-11
-3
6
15
24
32
38
43
44
43
37
26
9
-13
-38
-66
-93
-116
-134
-144
-145
-137
-122
-103
-83
-65
-52
-45
-45
-52
-63
-75
-87
-95
-96
-91
-79
-62
-43
-23
-7
2
3
-5
-23
-49
-79
-111
-139
-159
-170
-168
-154
-130
-99
-65
-33
-8
8
13
6
-10
-33
-57
-80
-96
-105
-104
-94
-77
-55
-33
-11
8
21
30
35
37
38
42
51
67
95
136
191
262
349
448
558
675
794
910
1020
1120
1208
1282
1343
1390
1424
1445
1453
1446
1425
1387
1331
1258
1168
1065
951
833
714
600
494
400
319
252
196
152
117
91
70
54
42
31
22
12
2
-11
-25
-40
-55
-68
-77
-80
-76
-65
-48
-28
-6
13
26
31
27
14
-8
-34
-63
-90
-112
-126
-131
-126
-114
-96
-77
-59
-47
-42
-45
-54
-69
-86
-101
-112
-118
-118
-114
-109
-105
-105
-112
-124
-143
-163
-182
-197
-203
-200
-187
-167
-141
-115
-91
-71
-58
-50
-46
-46
-47
-48
-50
-51
-54
-58
-66
-76
-88
-101
-112
-119
-122
-118
-108
-95
-78
-62
-48
-40
-39
-45
-59
-81
-107
-135
-163
-187
-204
-212
-210
-196
-172
-142
-107
-73
-43
-20
-8
-7
-15
-31
-51
-71
-87
-97
-99
-92
-78
-59
-38
-19
-6
0
-3
-16
-38
-65
-95
-125
-149
-165
-170
-165
-148
-124
-94
-64
-37
-17
-7
-7
-17
-34
-55
-77
-94
-105
-107
-101
-86
-66
-44
-22
-3
9
15
13
5
-8
-25
-42
-59
-74
-85
-94
-99
-101
-101
-99
-97
-95
-92
-91
-90
-89
-89
-88
-87
-84
-78
-69
-57
-42
-24
-5
14
31
44
52
53
47
36
20
1
-18
-35
-49
-57
-59
-57
-50
-41
-31
-23
-17
-16
-20
-29
-41
-56
-70
-82
-90
-91
-85
-71
-52
-28
-3
21
41
54
58
54
41
22
0
-24
-45
-61
-71
-72
-65
-51
-32
-9
13
32
44
47
40
23
-2
-32
-63
-90
-109
-116
-110
-92
-62
-25
14
50
78
95
98
87
65
36
4
-28
-53
-70
-76
-71
-57
-35
-7
21
48
70
86
93
92
83
68
50
30
13
1
-4
-1
10
28
50
71
89
100
101
91
69
38
1
-37
-73
-101
-118
-121
-111
-89
-58
-22
13
45
68
80
80
70
50
26
0
-24
-41
-50
-50
-42
-26
-6
15
33
46
52
49
39
20
-3
-28
-54
-76
-93
-103
-105
-100
-88
-73
-57
-42
-32
-28
-30
-40
-54
-70
-85
-95
-98
-91
-75
-52
-23
9
39
64
80
87
84
70
49
23
-4
-30
-51
-64
-69
-63
-50
-30
-6
17
35
44
42
28
1
-35
-76
-117
-153
-179
-191
-186
-166
-133
-91
-45
0
38
65
80
81
70
50
23
-5
-32
-52
-63
-64
-56
-39
-17
7
28
42
46
39
20
-9
-44
-82
-116
-142
-157
-158
-144
-117
-81
-40
0
35
59
72
71
58
36
9
-20
-45
-64
-74
-75
-68
-54
-38
-20
-6
4
8
6
-1
-12
-26
-41
-55
-67
-76
-80
-80
-75
-66
-54
-39
-24
-10
1
8
8
3
-7
-21
-36
-49
-59
-64
-64
-60
-52
-43
-36
-32
-32
-38
-49
-62
-76
-89
-98
-102
-99
-91
-77
-60
-40
-19
0
16
28
33
33
27
14
-2
-21
-40
-56
-69
-76
-77
-72
-62
-49
-35
-23
-14
-9
-9
-13
-21
-33
-47
-62
-79
-95
-110
-124
-135
-141
-142
-136
-123
-105
-84
-61
-41
-24
-14
-11
-14
-21
-30
-37
-40
-38
-29
-15
1
15
26
30
25
12
-7
-31
-55
-77
-92
-100
-99
-91
-76
-56
-36
-18
-5
3
3
-3
-15
-32
-49
-66
-80
-90
-94
-94
-89
-82
-74
-66
-62
-61
-64
-70
-79
-89
-98
-105
-108
-106
-100
-89
-75
-58
-40
-22
-6
6
14
16
13
3
-11
-29
-48
-66
-80
-87
-86
-76
-57
-34
-8
15
31
36
27
5
-29
-70
-113
-152
-180
-192
-188
-166
-131
-88
-42
0
31
48
49
35
9
-24
-59
-89
-111
-121
-119
-105
-82
-54
-24
2
22
34
38
35
25
12
-3
-18
-31
-43
-53
-63
-72
-81
-88
-93
-96
-94
-88
-78
-66
-52
-41
-33
-32
-36
-46
-59
-71
-80
-83
-77
-61
-39
-13
14
36
51
55
48
32
9
-15
-37
-51
-55
-48
-29
-3
27
55
76
85
79
59
26
-15
-60
-101
-132
-147
-144
-121
-82
-30
28
85
133
168
185
185
169
140
104
65
31
4
-13
-18
-13
2
22
45
66
84
95
97
90
74
49
19
-16
-50
-81
-106
-122
-127
-121
-105
-81
-53
-25
0
17
24
21
8
-12
-36
-60
-79
-92
-97
-92
-79
-60
-38
-17
-1
9
10
3
-11
-31
-52
-71
-86
-94
-94
-86
-72
-55
-38
-24
-18
-20
-31
-50
-75
-102
-126
-143
-152
-149
-135
-113
-85
-55
-28
-7
6
10
5
-6
-22
-38
-52
-61
-65
-62
-53
-39
-19
5
33
65
102
144
193
249
312
383
462
548
640
737
837
940
1042
1141
1236
1323
1400
1462
1508
1534
1539
1521
1479
1416
1332
1232
1120
1002
883
768
662
566
483
412
350
297
248
201
154
107
61
17
-22
-52
-70
-77
-69
-50
-21
13
48
80
103
116
116
104
81
51
17
-17
-46
-66
-77
-77
-67
-51
-32
-15
-4
-2
-11
-31
-60
-94
-128
-159
-181
-191
-188
-172
-145
-112
-77
-45
-19
-3
2
-5
-22
-47
-76
-106
-133
-154
-166
-170
-163
-148
-127
-101
-76
-53
-36
-28
-30
-40
-59
-82
-108
-132
-151
-163
-166
-160
-146
-127
-105
-85
-68
-58
-55
-62
-78
-99
-125
-151
-174
-190
-197
-193
-178
-153
-121
-85
-51
-21
-1
9
6
-7
-29
-56
-83
-106
-122
-128
-125
-113
-94
-73
-52
-36
-26
-25
-32
-46
-65
-86
-105
-121
-130
-134
-131
-124
-114
-104
-96
-91
-90
-93
-98
-106
-115
-123
-129
-132
-132
-129
-122
-112
-99
-84
-67
-49
-33
-19
-10
-6
-9
-18
-33
-52
-72
-90
-105
-112
-110
-100
-81
-56
-29
-4
15
25
23
7
-21
-58
-101
-143
-181
-207
-220
-217
-199
-169
-130
-87
-46
-12
12
25
26
16
0
-20
-40
-57
-69
-74
-72
-64
-50
-34
-17
-2
9
14
11
0
-19
-45
-75
-106
-134
-156
-168
-169
-157
-135
-104
-69
-34
-3
19
31
31
20
1
-22
-46
-66
-79
-85
-81
-70
-54
-35
-17
-4
3
1
-8
-25
-48
-73
-99
-121
-137
-146
-146
-137
-121
-101
-78
-57
-41
-30
-28
-33
-44
-60
-76
-90
-98
-99
-92
-77
-56
-31
-6
17
34
44
46
39
25
6
-15
-36
-53
-63
-66
-59
-43
-19
10
41
68
89
98
92
70
34
-15
-70
-127
-176
-213
-230
-226
-201
-156
-99
-35
28
81
119
140
142
128
102
69
36
7
-12
-21
-18
-6
12
32
51
64
70
66
53
33
8
-19
-43
-62
-73
-76
-69
-53
-33
-9
14
33
44
47
41
27
6
-18
-42
-61
-75
-80
-77
-66
-48
-28
-6
13
27
33
32
22
4
-20
-47
-76
-102
-124
-138
-143
-137
-120
-95
-65
-32
-2
22
37
40
31
13
-12
-39
-63
-79
-85
-79
-62
-39
-11
13
32
41
38
25
4
-21
-46
-66
-80
-84
-81
-70
-54
-38
-23
-11
-4
-2
-4
-8
-14
-19
-24
-27
-28
-28
-26
-23
-19
-14
-8
-1
6
13
17
19
18
11
-1
-16
-35
-54
-71
-83
-89
-88
-78
-62
-42
-21
-2
11
16
13
0
-19
-43
-66
-86
-98
-101
-94
-78
-55
-28
-2
19
34
38
32
17
-5
-31
-58
-81
-98
-106
-105
-95
-77
-53
-28
-3
18
32
37
35
23
5
-17
-41
-63
-81
-91
-94
-88
-74
-54
-31
-7
13
28
35
33
22
3
-22
-48
-74
-95
-108
-113
-107
-92
-71
-47
-22
-2
11
16
11
-2
-22
-45
-68
-87
-98
-101
-94
-79
-58
-35
-13
5
16
20
16
6
-9
-25
-40
-53
-62
-68
-71
-73
-75
-79
-84
-90
-96
-101
-103
-103
-99
-92
-83
-74
-64
-56
-48
-41
-35
-27
-19
-9
1
10
17
19
15
5
-11
-32
-55
-77
-94
-103
-102
-91
-70
-43
-13
15
37
47
43
26
-5
-45
-89
-131
-164
-185
-189
-176
-148
-109
-64
-20
17
43
55
52
38
14
-14
-42
-65
-82
-89
-87
-77
-61
-42
-23
-6
6
13
12
3
-13
-36
-65
-97
-128
-157
-179
-191
-192
-181
-158
-126
-87
-47
-9
21
42
51
48
36
18
-2
-21
-34
-40
-37
-28
-12
4
19
29
32
25
11
-10
-36
-61
-85
-101
-110
-110
-102
-86
-65
-43
-22
-6
3
3
-5
-22
-44
-68
-92
-111
-122
-125
-118
-102
-79
-51
-24
0
19
29
30
22
6
-14
-37
-60
-79
-93
-100
-100
-92
-79
-60
-40
-19
-1
11
17
15
5
-11
-30
-50
-67
-78
-80
-72
-54
-28
2
33
60
79
89
87
74
54
29
5
-15
-27
-29
-21
-4
18
42
62
75
78
68
49
20
-11
-43
-68
-83
-85
-73
-49
-16
24
64
100
128
145
149
142
125
100
70
40
12
-10
-26
-34
-33
-26
-13
2
17
30
37
38
32
19
1
-20
-41
-61
-76
-87
-93
-95
-94
-92
-90
-88
-88
-90
-93
-96
-99
-102
-103
-102
-100
-95
-88
-78
-66
-52
-37
-22
-10
-2
2
0
-7
-19
-34
-50
-64
-74
-81
-82
-80
-74
-67
-60
-55
-53
-54
-57
-64
-72
-83
-93
-104
-114
-121
-124
-122
-112
-94
-68
-34
7
51
96
139
177
211
241
270
302
343
396
466
554
659
779
907
1036
1158
1266
1353
1414
1450
1459
1446
1416
1373
1322
1268
1215
1163
1113
1063
1010
953
890
817
736
646
550
451
353
261
179
111
60
26
9
7
15
29
43
53
55
47
30
6
-22
-50
-73
-89
-94
-88
-72
-49
-21
7
33
52
62
63
54
37
14
-13
-41
-66
-87
-101
-107
-105
-97
-82
-66
-49
-36
-29
-30
-39
-56
-79
-105
-130
-152
-167
-174
-170
-157
-137
-110
-82
-55
-33
-18
-12
-15
-27
-46
-71
-98
-125
-149
-166
-177
-178
-171
-155
-133
-107
-80
-57
-40
-33
-37
-52
-78
-110
-144
-176
-200
-212
-210
-193
-163
-123
-81
-40
-8
12
18
9
-12
-41
-71
-99
-119
-128
-126
-112
-91
-66
-42
-23
-11
-10
-18
-35
-56
-79
-100
-116
-124
-123
-115
-101
-83
-66
-52
-46
-47
-59
-78
-104
-133
-160
-182
-195
-198
-188
-168
-138
-103
-65
-29
1
23
35
37
30
15
-6
-29
-51
-70
-84
-91
-91
-84
-72
-57
-41
-28
-19
-17
-23
-36
-55
-76
-98
-116
-128
-131
-126
-113
-93
-69
-45
-23
-7
3
6
1
-10
-26
-43
-62
-81
-97
-111
-121
-128
-130
-129
-123
-113
-101
-87
-73
-61
-53
-49
-50
-55
-63
-72
-80
-83
-79
-69
-52
-30
-6
16
33
42
40
29
8
-18
-46
-71
-91
-102
-104
-96
-82
-63
-45
-30
-21
-19
-25
-38
-54
-72
-89
-101
-109
-109
-104
-93
-79
-63
-47
-33
-21
-14
-12
-14
-22
-33
-48
-64
-80
-93
-102
-105
-99
-86
-65
-39
-11
14
32
39
34
14
-18
-57
-99
-137
-165
-176
-169
-143
-102
-50
6
58
100
128
138
130
109
78
43
10
-16
-33
-37
-31
-17
3
25
45
59
67
67
59
45
27
7
-13
-30
-44
-54
-61
-64
-64
-63
-61
-58
-55
-52
-49
-45
-40
-35
-30
-25
-21
-18
-15
-12
-8
-2
6
16
26
36
43
46
43
34
19
1
-19
-37
-50
-55
-53
-42
-25
-5
14
29
37
37
28
13
-6
-25
-42
-53
-58
-57
-51
-44
-38
-36
-39
-48
-60
-75
-89
-99
-104
-103
-96
-84
-69
-53
-37
-22
-9
2
13
24
34
43
49
51
47
37
20
-1
-23
-45
-62
-72
-73
-65
-50
-30
-7
14
30
38
38
28
11
-10
-34
-55
-72
-82
-84
-76
-60
-39
-16
5
21
28
23
6
-20
-54
-90
-125
-152
-167
-169
-156
-130
-93
-50
-7
32
61
79
83
73
52
23
-9
-41
-67
-85
-92
-89
-74
-52
-25
2
27
46
55
56
46
28
5
-22
-48
-71
-88
-98
-100
-95
-83
-66
-47
-28
-11
2
9
10
4
-6
-19
-34
-46
-54
-57
-53
-44
-29
-12
4
18
28
30
26
16
0
-18
-37
-54
-68
-79
-84
-86
-83
-78
-70
-63
-55
-49
-45
-44
-45
-48
-52
-57
-62
-65
-65
-60
-52
-40
-25
-9
6
18
23
21
11
-6
-29
-53
-77
-94
-103
-102
-91
-72
-51
-30
-16
-13
-24
-49
-85
-127
-168
-203
-225
-229
-214
-181
-133
-77
-19
33
73
98
107
100
81
53
21
-10
-36
-55
-67
-70
-67
-58
-45
-31
-16
-3
8
15
18
16
9
-3
-19
-38
-59
-79
-95
-105
-109
-105
-94
-76
-55
-34
-15
-4
-1
-8
-24
-48
-74
-99
-118
-127
-124
-109
-83
-49
-13
19
43
56
54
40
16
-15
-48
-77
-98
-109
-110
-101
-86
-69
-52
-41
-36
-39
-50
-65
-82
-98
-111
-118
-119
-112
-99
-82
-62
-41
-21
-4
9
17
20
18
11
1
-12
-26
-39
-50
-57
-61
-60
-56
-49
-41
-34
-29
-27
-29
-35
-43
-52
-61
-69
-74
-77
-77
-74
-68
-60
-51
-40
-30
-20
-12
-5
-2
-3
-7
-14
-25
-37
-47
-55
-59
-56
-48
-34
-17
0
14
22
22
13
-5
-28
-54
-78
-97
-106
-104
-91
-68
-39
-8
20
43
56
59
52
37
17
-4
-22
-34
-38
-33
-19
2
28
55
80
101
115
120
116
104
86
64
41
19
1
-10
-15
-13
-5
7
20
33
42
46
44
35
22
6
-11
-27
-39
-45
-44
-37
-23
-6
13
32
46
55
57
51
37
17
-7
-32
-56
-76
-91
-99
-101
-96
-87
-74
-60
-47
-37
-31
-30
-34
-43
-56
-72
-88
-103
-113
-117
-113
-101
-81
-56
-29
-3
19
34
39
34
18
-5
-33
-62
-89
-108
-117
-116
-103
-81
-53
-22
7
28
39
36
18
-12
-52
-96
-139
-174
-196
-201
-188
-156
-111
-56
3
59
109
150
182
207
231
258
294
345
413
500
605
723
848
975
1097
1207
1302
1378
1434
1470
1488
1489
1475
1449
1410
1360
1300
1228
1146
1056
958
856
751
647
547
453
366
288
218
156
103
59
24
-2
-18
-23
-20
-8
8
27
44
55
60
56
44
25
2
-22
-43
-58
-65
-64
-56
-42
-24
-8
6
13
13
5
-11
-33
-58
-84
-106
-124
-134
-136
-131
-118
-102
-86
-71
-62
-60
-66
-78
-95
-113
-130
-142
-147
-145
-134
-117
-96
-74
-54
-38
-28
-26
-31
-42
-58
-76
-95
-113
-129
-140
-147
-150
-149
-143
-135
-125
-114
-104
-96
-91
-90
-92
-98
-106
-115
-123
-128
-129
-123
-112
-96
-76
-56
-38
-24
-18
-21
-33
-52
-76
-101
-123
-138
-145
-142
-131
-112
-92
-72
-57
-50
-51
-61
-78
-100
-122
-143
-157
-165
-164
-155
-139
-118
-94
-70
-47
-29
-17
-11
-13
-21
-35
-53
-72
-91
-106
-116
-119
-115
-104
-89
-71
-54
-40
-32
-30
-35
-46
-62
-80
-96
-110
-117
-119
-112
-98
-77
-53
-27
-2
18
30
33
26
9
-17
-48
-81
-110
-133
-145
-144
-132
-110
-82
-51
-24
-3
7
6
-6
-26
-51
-76
-96
-109
-113
-107
-93
-74
-52
-32
-16
-7
-5
-11
-23
-40
-58
-76
-90
-100
-103
-100
-90
-74
-54
-32
-9
12
28
38
39
31
14
-8
-35
-63
-87
-105
-113
-111
-98
-76
-48
-17
11
34
47
48
38
17
-11
-43
-74
-100
-117
-123
-117
-100
-76
-47
-18
6
23
31
29
19
3
-15
-33
-48
-58
-62
-60
-55
-47
-38
-30
-25
-23
-23
-24
-27
-28
-29
-28
-25
-19
-12
-2
10
23
37
51
65
76
83
86
83
74
61
45
28
12
0
-8
-9
-6
1
9
17
21
22
17
9
-2
-15
-27
-36
-41
-42
-40
-34
-25
-14
-2
11
24
37
49
58
63
63
55
41
18
-9
-39
-68
-92
-107
-112
-104
-86
-60
-30
-1
22
35
36
26
5
-22
-50
-75
-93
-99
-95
-79
-54
-26
2
26
42
46
40
22
-2
-30
-58
-81
-96
-101
-97
-83
-63
-40
-17
2
14
18
13
0
-18
-40
-62
-81
-94
-100
-100
-92
-78
-61
-42
-26
-13
-6
-5
-11
-23
-38
-55
-70
-81
-87
-85
-77
-62
-44
-23
-4
13
24
30
28
19
4
-15
-35
-56
-73
-86
-92
-90
-82
-67
-49
-30
-13
-2
2
-3
-17
-37
-62
-87
-108
-122
-127
-120
-104
-79
-50
-20
6
27
39
42
36
23
4
-17
-38
-57
-71
-81
-84
-82
-76
-66
-55
-43
-32
-24
-20
-19
-23
-30
-39
-49
-57
-63
-66
-63
-56
-46
-33
-19
-7
1
4
1
-7
-20
-37
-56
-73
-87
-96
-98
-93
-82
-66
-48
-31
-16
-7
-6
-12
-27
-47
-71
-96
-117
-132
-137
-133
-117
-94
-66
-37
-11
6
13
7
-10
-37
-70
-104
-133
-153
-161
-155
-136
-106
-69
-32
3
29
45
48
38
17
-10
-42
-74
-101
-121
-131
-131
-121
-103
-79
-53
-29
-8
4
8
2
-12
-34
-59
-83
-103
-116
-120
-114
-99
-76
-50
-25
-4
10
13
7
-10
-33
-61
-88
-111
-127
-134
-130
-116
-94
-67
-38
-11
10
22
25
17
-1
-26
-55
-84
-110
-129
-140
-140
-129
-110
-84
-55
-28
-5
10
16
11
-3
-24
-49
-76
-99
-116
-125
-124
-115
-98
-76
-53
-32
-16
-8
-8
-18
-34
-56
-80
-104
-123
-136
-141
-138
-128
-111
-91
-70
-50
-33
-20
-13
-11
-14
-22
-32
-45
-60
-74
-88
-101
-111
-118
-121
-121
-116
-108
-97
-86
-74
-65
-58
-54
-52
-53
-53
-52
-47
-39
-28
-13
1
14
23
25
19
6
-13
-35
-58
-77
-92
-98
-97
-88
-73
-55
-36
-20
-9
-4
-6
-15
-29
-46
-63
-80
-93
-100
-100
-93
-80
-62
-41
-18
2
17
26
28
22
9
-8
-27
-44
-58
-66
-67
-60
-46
-28
-8
12
28
39
43
40
31
16
-1
-19
-34
-43
-46
-40
-25
-4
23
51
77
98
109
110
100
79
49
14
-21
-54
-80
-96
-100
-94
-79
-57
-32
-8
12
25
30
26
12
-8
-32
-58
-81
-99
-109
-109
-100
-82
-59
-34
-11
4
9
1
-20
-52
-90
-131
-167
-193
-206
-202
-182
-149
-107
-64
-24
6
23
25
14
-9
-38
-69
-96
-116
-126
-124
-113
-95
-72
-49
-29
-14
-5
-3
-7
-16
-29
-42
-55
-68
-79
-88
-95
-100
-103
-104
-102
-98
-91
-81
-69
-55
-40
-22
-3
20
46
78
117
163
219
283
355
434
518
604
690
775
858
938
1014
1088
1159
1227
1290
1346
1393
1426
1443
1440
1415
1365
1293
1200
1090
968
840
713
591
481
384
304
240
191
154
128
108
91
74
56
35
11
-15
-41
-65
-84
-96
-99
-93
-79
-57
-32
-7
15
30
36
31
15
-9
-39
-70
-101
-125
-142
-149
-147
-136
-118
-97
-75
-55
-40
-31
-28
-32
-43
-60
-80
-101
-122
-139
-151
-155
-151
-138
-118
-93
-66
-43
-26
-21
-29
-51
-85
-126
-170
-209
-239
-255
-254
-235
-203
-160
-115
-72
-38
-17
-9
-16
-33
-57
-83
-107
-124
-134
-134
-126
-111
-92
-73
-55
-41
-33
-32
-38
-50
-66
-85
-104
-121
-133
-139
-138
-129
-113
-93
-70
-49
-32
-22
-21
-28
-43
-64
-87
-108
-124
-133
-133
-124
-109
-89
-69
-53
-45
-46
-57
-77
-103
-133
-162
-186
-202
-208
-203
-188
-164
-135
-102
-70
-41
-18
-3
4
2
-7
-22
-41
-61
-79
-92
-99
-99
-91
-77
-59
-39
-20
-6
1
0
-10
-28
-51
-76
-101
-122
-137
-143
-140
-128
-108
-83
-55
-28
-5
11
18
17
7
-10
-31
-51
-69
-81
-84
-77
-62
-41
-17
6
22
31
30
19
0
-23
-46
-66
-78
-80
-71
-55
-33
-9
12
27
33
30
17
-3
-28
-53
-75
-91
-100
-99
-90
-73
-52
-27
-2
20
38
50
56
56
49
37
20
1
-19
-37
-53
-62
-65
-59
-44
-22
6
35
63
83
93
90
72
42
2
-41
-82
-114
-133
-133
-116
-84
-40
8
53
91
115
124
119
101
75
46
20
1
-9
-8
2
21
44
68
90
106
114
114
105
90
69
47
27
11
2
2
9
22
38
53
64
67
59
41
14
-20
-55
-87
-111
-123
-124
-112
-91
-62
-32
-2
23
41
53
58
57
52
46
38
31
23
16
9
3
-3
-6
-7
-6
-1
5
13
20
24
23
17
5
-13
-33
-54
-73
-88
-95
-95
-87
-73
-54
-35
-18
-5
1
1
-7
-21
-40
-59
-78
-91
-98
-97
-88
-72
-52
-30
-9
6
14
13
5
-11
-30
-49
-66
-77
-82
-80
-74
-64
-54
-46
-43
-44
-49
-57
-66
-75
-80
-82
-80
-74
-66
-57
-48
-38
-29
-20
-11
-3
4
9
11
9
2
-10
-26
-43
-58
-69
-73
-69
-57
-40
-19
0
13
15
6
-15
-47
-86
-127
-163
-191
-204
-201
-182
-147
-103
-53
-3
42
75
95
100
91
69
38
2
-33
-65
-89
-104
-107
-100
-84
-62
-36
-11
10
25
32
29
18
0
-22
-45
-66
-82
-91
-91
-82
-67
-46
-24
-3
13
22
22
14
-2
-23
-46
-68
-86
-97
-101
-98
-88
-74
-58
-43
-31
-24
-23
-29
-39
-53
-69
-84
-96
-104
-106
-103
-94
-80
-63
-44
-27
-12
-3
0
-5
-16
-32
-51
-71
-89
-101
-106
-105
-97
-84
-69
-56
-47
-45
-50
-61
-77
-95
-111
-123
-128
-125
-114
-96
-74
-51
-29
-10
3
10
11
6
-3
-17
-33
-49
-65
-79
-89
-94
-92
-84
-70
-52
-32
-12
5
16
19
14
2
-17
-40
-63
-85
-102
-112
-115
-110
-99
-83
-64
-46
-31
-21
-16
-19
-29
-43
-60
-77
-92
-101
-104
-99
-87
-70
-50
-32
-18
-11
-13
-24
-43
-66
-91
-113
-130
-138
-136
-125
-105
-79
-50
-23
0
16
23
21
11
-7
-30
-54
-79
-99
-113
-118
-114
-102
-81
-54
-25
2
22
33
30
12
-18
-58
-104
-149
-186
-211
-219
-210
-183
-142
-92
-41
5
41
62
68
57
34
2
-33
-65
-91
-107
-111
-104
-86
-62
-35
-10
9
19
18
7
-15
-42
-73
-101
-124
-139
-143
-136
-121
-100
-76
-53
-33
-19
-13
-13
-20
-31
-44
-57
-68
-76
-80
-79
-73
-62
-48
-31
-13
3
17
26
29
26
16
2
-16
-35
-52
-65
-72
-72
-64
-52
-34
-15
4
20
31
37
36
30
20
8
-4
-13
-17
-16
-9
4
20
38
55
69
78
80
74
63
46
26
6
-13
-27
-36
-39
-38
-32
-23
-14
-6
0
2
0
-6
-15
-26
-38
-50
-58
-63
-62
-57
-46
-32
-16
-2
8
12
6
-9
-33
-64
-98
-132
-159
-178
-183
-175
-154
-123
-86
-48
-13
13
28
30
21
2
-23
-50
-77
-99
-115
-124
-126
-121
-111
-98
-82
-67
-53
-41
-33
-29
-30
-35
-43
-54
-65
-76
-83
-86
-84
-77
-66
-53
-41
-31
-25
-26
-31
-41
-51
-60
-63
-58
-42
-15
23
71
126
185
247
310
373
437
503
572
645
725
810
902
998
1096
1194
1288
1374
1449
1506
1543
1556
1542
1498
1426
1327
1206
1069
924
780
645
526
427
350
293
254
226
203
180
152
116
75
29
-17
-58
-90
-108
-112
-101
-79
-49
-18
11
31
41
39
26
2
-27
-58
-86
-108
-122
-125
-119
-104
-83
-58
-33
-12
4
13
14
6
-10
-32
-56
-82
-105
-124
-136
-140
-137
-126
-111
-94
-78
-66
-62
-64
-75
-92
-112
-133
-151
-162
-164
-157
-142
-119
-93
-65
-41
-22
-11
-9
-16
-31
-50
-71
-91
-108
-119
-124
-123
-117
-107
-95
-85
-78
-75
-77
-85
-96
-111
-126
-141
-153
-161
-164
-161
-153
-140
-123
-103
-82
-63
-47
-36
-32
-35
-44
-59
-77
-96
-113
-125
-130
-128
-118
-103
-85
-66
-51
-41
-39
-44
-56
-74
-96
-117
-136
-150
-157
-157
-149
-133
-112
-88
-63
-39
-19
-5
2
1
-7
-22
-42
-63
-84
-101
-112
-115
-110
-99
-82
-62
-43
-27
-17
-15
-20
-32
-47
-64
-80
-90
-94
-91
-81
-67
-50
-33
-19
-12
-10
-16
-27
-43
-59
-74
-86
-92
-93
-87
-75
-60
-44
-29
-16
-8
-5
-8
-16
-28
-42
-55
-67
-74
-76
-71
-61
-46
-28
-7
12
28
40
44
41
31
14
-8
-33
-58
-80
-97
-107
-108
-101
-86
-66
-44
-23
-8
1
1
-7
-23
-42
-62
-78
-88
-90
-82
-66
-44
-19
6
28
44
54
57
54
45
32
15
-3
-21
-39
-56
-70
-80
-86
-86
-80
-68
-53
-36
-18
-4
6
9
5
-3
-13
-23
-30
-31
-23
-9
12
36
59
78
90
92
86
70
49
25
3
-15
-25
-27
-20
-6
11
29
45
56
61
58
49
35
18
2
-11
-17
-18
-12
0
14
28
39
44
41
30
11
-11
-36
-58
-76
-85
-86
-77
-61
-39
-14
11
33
50
60
64
61
53
40
23
5
-13
-29
-42
-51
-55
-55
-49
-40
-28
-16
-6
0
2
-2
-12
-26
-43
-61
-76
-86
-89
-85
-73
-55
-32
-7
16
35
47
50
44
30
8
-18
-45
-69
-87
-97
-98
-90
-74
-54
-32
-11
4
12
10
0
-18
-41
-67
-90
-108
-119
-120
-111
-95
-72
-47
-22
-1
14
23
25
20
11
-1
-13
-26
-36
-45
-51
-56
-59
-59
-58
-54
-48
-40
-31
-23
-16
-12
-11
-15
-23
-32
-41
-48
-50
-46
-36
-21
-4
14
29
37
39
32
19
0
-20
-40
-55
-65
-68
-65
-56
-44
-30
-18
-9
-4
-4
-10
-19
-30
-43
-55
-64
-70
-72
-70
-63
-52
-39
-25
-11
0
7
10
7
-3
-18
-38
-61
-85
-107
-123
-132
-132
-122
-105
-82
-56
-32
-13
-2
0
-7
-21
-40
-60
-77
-86
-87
-78
-61
-39
-15
8
24
33
33
23
6
-16
-40
-62
-79
-89
-91
-85
-73
-58
-41
-26
-16
-13
-17
-30
-50
-75
-102
-127
-147
-159
-162
-153
-134
-105
-71
-34
1
31
53
64
63
52
32
5
-23
-50
-71
-85
-88
-83
-68
-49
-27
-6
10
18
17
7
-10
-33
-59
-83
-103
-116
-121
-116
-103
-83
-59
-33
-9
10
21
23
15
-2
-26
-54
-82
-107
-125
-133
-131
-118
-98
-71
-44
-19
0
10
10
1
-16
-38
-61
-81
-97
-105
-105
-97
-83
-64
-44
-26
-11
-1
2
-2
-11
-24
-40
-56
-70
-81
-88
-90
-87
-80
-69
-56
-43
-29
-18
-11
-8
-10
-17
-29
-43
-59
-73
-84
-90
-90
-84
-72
-58
-43
-30
-23
-22
-29
-43
-60
-78
-94
-104
-105
-98
-82
-59
-33
-8
13
27
32
27
12
-9
-36
-62
-87
-105
-115
-116
-109
-93
-72
-48
-25
-5
9
16
16
9
-2
-17
-32
-48
-62
-74
-85
-95
-103
-110
-116
-118
-118
-113
-104
-91
-75
-58
-43
-31
-23
-19
-19
-20
-20
-18
-12
-3
10
25
38
47
50
46
36
21
4
-11
-21
-25
-21
-9
8
27
46
59
65
62
50
30
6
-20
-43
-61
-69
-68
-57
-36
-9
22
54
82
103
116
119
113
98
78
54
30
8
-8
-17
-19
-13
0
18
37
56
70
79
78
68
48
20
-13
-49
-83
-112
-132
-142
-141
-129
-109
-83
-55
-30
-10
0
1
-7
-22
-41
-61
-77
-87
-89
-83
-70
-52
-33
-16
-3
3
3
-3
-14
-28
-42
-56
-68
-79
-89
-98
-108
-117
-127
-134
-139
-140
-136
-126
-112
-94
-76
-58
-43
-33
-26
-23
-22
-22
-21
-18
-13
-8
-3
0
0
-3
-10
-17
-23
-25
-19
-3
24
64
115
177
246
320
398
476
553
629
704
778
852
926
1001
1078
1155
1231
1303
1370
1426
1467
1489
1488
1461
1410
1334
1237
1125
1004
881
763
656
563
486
423
373
332
295
258
218
174
125
74
23
-24
-63
-92
-108
-110
-100
-80
-52
-21
10
38
59
71
73
67
52
32
8
-17
-39
-56
-68
-73
-72
-65
-55
-43
-32
-24
-20
-22
-30
-44
-63
-85
-108
-129
-146
-157
-160
-155
-143
-125
-103
-81
-61
-47
-41
-43
-53
-69
-90
-110
-129
-140
-144
-138
-123
-103
-79
-55
-36
-23
-19
-26
-40
-60
-83
-106
-125
-139
-145
-145
-139
-130
-120
-111
-105
-104
-106
-113
-121
-131
-140
-146
-148
-145
-138
-127
-111
-93
-74
-55
-38
-24
-14
-10
-13
-21
-35
-53
-74
-94
-111
-123
-129
-126
-117
-102
-83
-65
-50
-42
-42
-51
-68
-92
-118
-143
-164
-175
-177
-166
-146
-117
-85
-52
-23
-1
12
14
6
-10
-32
-57
-81
-102
-117
-123
-120
-107
-87
-61
-34
-8
12
21
18
1
-28
-68
-113
-157
-195
-221
-232
-225
-202
-165
-119
-71
-27
8
31
39
33
16
-9
-36
-62
-82
-94
-97
-91
-78
-59
-38
-19
-5
4
4
-3
-17
-36
-55
-73
-87
-94
-94
-86
-72
-55
-38
-24
-17
-17
-26
-41
-62
-84
-104
-120
-129
-129
-121
-106
-84
-60
-35
-12
6
18
24
21
13
-2
-21
-42
-63
-82
-95
-102
-103
-95
-82
-65
-46
-29
-16
-9
-8
-15
-28
-44
-62
-80
-95
-105
-109
-107
-99
-86
-67
-46
-23
-2
15
24
22
8
-18
-56
-102
-150
-194
-228
-244
-240
-214
-170
-111
-46
18
71
109
127
126
107
78
45
14
-9
-20
-19
-6
15
39
62
79
87
86
76
58
37
14
-6
-22
-31
-32
-27
-15
0
17
33
46
53
54
48
35
17
-5
-28
-49
-67
-78
-82
-78
-67
-50
-30
-10
9
23
32
33
26
14
-3
-22
-41
-56
-65
-69
-65
-55
-40
-22
-3
14
28
34
34
26
11
-10
-33
-57
-78
-93
-101
-100
-91
-75
-54
-32
-12
3
12
15
11
3
-8
-18
-25
-28
-26
-19
-8
6
21
35
47
54
56
52
41
24
2
-25
-53
-80
-103
-118
-123
-117
-101
-76
-45
-14
13
32
40
36
21
-1
-25
-48
-63
-70
-64
-49
-25
3
32
55
70
75
69
53
29
0
-29
-54
-73
-83
-83
-73
-54
-29
-3
22
40
50
48
34
10
-22
-57
-90
-117
-134
-138
-129
-109
-79
-44
-10
20
43
54
55
45
27
3
-23
-47
-66
-78
-80
-73
-59
-38
-15
7
25
35
35
23
1
-30
-64
-99
-130
-151
-159
-154
-134
-103
-63
-20
22
56
80
90
86
69
43
12
-20
-48
-68
-78
-75
-63
-42
-17
7
27
38
39
30
10
-17
-48
-78
-103
-121
-129
-126
-114
-94
-70
-43
-18
2
16
22
21
12
-1
-18
-35
-49
-60
-64
-62
-53
-39
-21
-2
14
27
33
31
22
6
-14
-37
-59
-78
-92
-98
-97
-90
-76
-59
-40
-22
-8
1
3
-2
-13
-30
-49
-69
-86
-97
-102
-97
-85
-66
-43
-21
-2
9
10
0
-19
-46
-76
-104
-126
-139
-139
-126
-103
-71
-37
-3
25
44
51
48
35
14
-11
-36
-58
-74
-81
-80
-70
-54
-34
-13
4
17
20
14
-2
-26
-55
-87
-116
-138
-151
-151
-139
-115
-82
-44
-6
28
55
70
74
67
50
25
-3
-30
-54
-70
-79
-78
-68
-51
-30
-8
11
25
31
27
13
-9
-37
-67
-97
-121
-136
-141
-135
-118
-94
-63
-32
-4
19
33
38
32
18
-2
-25
-47
-65
-78
-81
-77
-64
-45
-22
1
21
34
38
33
17
-7
-37
-69
-99
-123
-138
-142
-134
-117
-91
-61
-31
-4
17
29
31
24
9
-10
-32
-51
-66
-72
-70
-59
-39
-13
15
42
62
73
71
56
29
-7
-47
-86
-118
-137
-141
-128
-99
-58
-10
39
83
116
136
140
130
109
81
51
24
4
-6
-5
6
25
48
71
92
107
115
114
105
92
75
58
43
31
25
23
25
29
34
36
36
32
24
13
1
-12
-23
-32
-38
-39
-36
-29
-19
-5
10
25
40
52
60
62
58
47
30
8
-16
-41
-63
-81
-91
-94
-88
-76
-59
-39
-19
-1
13
20
20
13
-2
-23
-48
-76
-103
-129
-149
-162
-166
-161
-149
-129
-106
-81
-58
-39
-27
-20
-19
-23
-27
-30
-30
-24
-14
1
18
35
48
54
52
42
23
-1
-29
-57
-81
-97
-104
-99
-84
-58
-24
16
59
103
146
187
227
267
311
361
420
492
577
677
788
908
1033
1155
1269
1368
1447
1501
1530
1532
1509
1464
1401
1325
1242
1155
1070
989
913
843
778
716
655
592
525
454
379
301
223
150
84
30
-11
-36
-44
-39
-21
4
34
62
86
102
108
102
84
57
21
-18
-59
-96
-125
-144
-150
-144
-126
-100
-69
-39
-13
5
12
9
-3
-21
-41
-59
-71
-76
-71
-59
-42
-23
-6
5
8
2
-13
-35
-61
-86
-107
-121
-126
-122
-111
-94
-75
-58
-46
-43
-49
-64
-88
-115
-144
-170
-188
-197
-194
-179
-154
-123
-88
-53
-23
-1
11
11
1
-18
-42
-70
-96
-117
-130
-133
-127
-110
-88
-61
-34
-12
3
7
0
-18
-46
-80
-116
-150
-178
-196
-203
-198
-182
-156
-124
-90
-56
-27
-5
7
9
2
-13
-34
-57
-79
-96
-106
-108
-101
-88
-70
-50
-33
-20
-14
-16
-25
-40
-57
-73
-87
-96
-100
-98
-94
-88
-82
-80
-81
-86
-93
-101
-109
-114
-117
-116
-110
-101
-90
-76
-60
-44
-27
-11
5
18
28
33
32
24
10
-9
-30
-51
-69
-81
-85
-81
-69
-51
-30
-9
8
18
20
12
-4
-27
-53
-80
-104
-123
-134
-135
-128
-113
-93
-68
-43
-20
-3
9
13
9
-1
-15
-32
-48
-61
-68
-70
-64
-51
-34
-14
5
20
30
31
23
6
-17
-44
-71
-96
-114
-122
-121
-110
-91
-66
-40
-15
3
14
15
7
-9
-30
-52
-73
-89
-98
-99
-92
-77
-58
-37
-17
0
10
12
7
-4
-21
-41
-60
-75
-85
-87
-81
-67
-46
-21
6
30
49
61
65
59
46
27
5
-17
-34
-45
-47
-40
-25
-4
21
46
68
84
92
90
79
60
37
12
-11
-29
-38
-39
-31
-14
7
31
54
73
84
87
81
68
48
26
3
-18
-33
-41
-42
-37
-26
-12
4
18
29
35
35
29
18
4
-9
-21
-29
-30
-25
-14
0
16
32
44
51
53
49
42
32
22
12
3
-6
-16
-27
-41
-56
-72
-86
-96
-100
-96
-84
-65
-43
-20
0
13
19
17
10
1
-7
-9
-5
6
23
43
61
73
78
71
55
32
4
-24
-47
-63
-69
-66
-54
-35
-14
5
21
30
31
23
8
-11
-33
-55
-74
-88
-94
-92
-82
-65
-44
-20
3
22
37
45
46
40
27
10
-8
-25
-39
-47
-48
-41
-28
-9
11
31
47
55
54
43
24
-3
-33
-63
-90
-109
-119
-118
-108
-90
-66
-40
-16
4
18
25
24
17
6
-7
-20
-30
-36
-36
-30
-18
-3
13
29
42
49
48
41
27
7
-15
-38
-57
-70
-77
-76
-68
-55
-39
-24
-11
-3
-1
-6
-16
-29
-45
-59
-71
-78
-79
-73
-61
-45
-26
-6
13
28
37
39
35
24
9
-10
-31
-50
-64
-73
-76
-70
-57
-38
-16
7
27
40
46
41
27
3
-27
-59
-90
-115
-131
-136
-127
-108
-80
-47
-14
14
34
43
40
26
3
-25
-53
-78
-96
-104
-102
-88
-66
-38
-9
19
39
50
49
35
10
-24
-62
-100
-132
-154
-163
-158
-139
-110
-74
-37
-5
19
31
31
19
-2
-27
-52
-73
-87
-90
-84
-69
-49
-26
-4
13
24
27
23
12
-3
-20
-37
-52
-65
-75
-82
-87
-89
-90
-90
-88
-84
-78
-70
-61
-52
-44
-39
-36
-36
-38
-41
-43
-41
-36
-26
-12
4
18
28
32
27
13
-8
-33
-59
-81
-97
-104
-100
-89
-70
-49
-30
-14
-5
-5
-12
-26
-44
-63
-81
-94
-100
-99
-92
-77
-59
-38
-17
1
14
20
19
11
-3
-21
-40
-60
-76
-87
-92
-91
-85
-76
-65
-54
-45
-39
-37
-39
-45
-53
-62
-72
-81
-87
-89
-87
-80
-68
-52
-34
-14
4
18
27
28
21
7
-12
-36
-59
-81
-97
-106
-108
-102
-90
-73
-54
-36
-19
-7
0
2
-2
-9
-18
-27
-35
-38
-37
-29
-16
3
24
46
66
81
88
87
76
58
35
9
-15
-35
-48
-51
-44
-28
-5
22
50
74
92
101
101
90
73
50
27
7
-6
-11
-6
8
29
53
76
93
103
101
88
66
36
4
-27
-52
-69
-76
-72
-61
-43
-22
-2
13
23
26
21
9
-9
-30
-51
-71
-88
-99
-103
-100
-90
-75
-57
-39
-22
-12
-9
-14
-29
-51
-77
-105
-130
-149
-157
-154
-140
-115
-84
-49
-17
8
24
29
22
5
-18
-43
-67
-85
-95
-96
-88
-72
-53
-33
-14
-1
4
2
-7
-23
-43
-65
-86
-104
-116
-120
-115
-101
-78
-46
-8
36
82
129
176
220
264
306
350
398
451
513
585
668
760
860
965
1072
1176
1274
1361
1434
1489
1523
1536
1525
1491
1436
1362
1273
1173
1067
961
857
759
669
586
509
436
366
297
229
161
97
39
-11
-49
-75
-87
-86
-76
-59
-39
-20
-5
4
8
6
0
-7
-15
-20
-23
-23
-21
-18
-17
-17
-20
-26
-36
-48
-62
-75
-87
-97
-103
-105
-102
-96
-86
-74
-59
-45
-31
-20
-12
-10
-13
-23
-39
-60
-83
-106
-127
-142
-151
-151
-143
-127
-107
-84
-63
-47
-37
-37
-46
-62
-83
-107
-128
-145
-154
-154
-144
-126
-102
-77
-54
-36
-28
-29
-40
-60
-86
-113
-138
-157
-167
-166
-156
-136
-111
-83
-56
-34
-19
-14
-17
-29
-47
-69
-91
-111
-126
-135
-136
-130
-118
-102
-85
-68
-54
-44
-38
-38
-41
-48
-57
-67
-77
-86
-93
-97
-98
-97
-92
-85
-76
-66
-57
-50
-46
-46
-51
-60
-72
-85
-97
-104
-106
-102
-91
-73
-52
-31
-11
3
10
9
0
-15
-34
-53
-70
-82
-87
-84
-73
-57
-38
-19
-4
5
6
-1
-16
-36
-59
-81
-98
-109
-111
-104
-89
-67
-42
-17
5
22
32
35
31
21
7
-9
-24
-38
-49
-55
-58
-57
-53
-47
-41
-35
-31
-30
-30
-33
-38
-43
-47
-49
-48
-43
-33
-19
-3
15
33
47
57
61
58
50
36
19
0
-18
-33
-44
-50
-51
-47
-39
-29
-18
-7
1
7
9
8
3
-3
-11
-18
-25
-29
-29
-24
-15
-3
12
29
44
56
63
63
56
42
23
1
-20
-37
-48
-51
-45
-30
-9
16
41
63
80
90
92
86
74
59
42
26
12
4
1
3
11
23
38
53
67
78
84
83
75
61
42
22
2
-14
-23
-24
-16
-1
19
41
61
76
82
80
68
49
25
-1
-26
-46
-59
-65
-64
-56
-42
-25
-7
9
23
34
38
37
30
18
4
-12
-28
-41
-50
-53
-50
-42
-29
-14
2
15
24
29
27
19
6
-10
-27
-44
-57
-66
-69
-67
-59
-48
-34
-20
-8
0
3
0
-9
-22
-38
-53
-65
-71
-71
-63
-48
-28
-5
16
34
44
46
38
23
2
-22
-46
-66
-79
-84
-81
-69
-52
-31
-10
7
19
24
20
8
-10
-31
-53
-72
-85
-90
-86
-74
-56
-34
-11
8
21
27
23
11
-7
-28
-49
-66
-78
-82
-77
-65
-47
-27
-6
11
23
29
26
17
2
-16
-36
-53
-67
-76
-79
-75
-66
-53
-38
-22
-9
0
5
4
-2
-13
-27
-43
-57
-69
-77
-79
-74
-64
-48
-29
-10
7
19
24
20
8
-11
-35
-60
-83
-100
-108
-106
-94
-74
-49
-21
5
26
39
42
35
19
-4
-31
-58
-83
-102
-113
-113
-104
-85
-60
-31
-3
20
34
37
27
5
-26
-63
-100
-132
-154
-164
-160
-143
-115
-81
-45
-14
10
24
26
18
1
-20
-44
-66
-84
-95
-100
-96
-86
-70
-50
-28
-6
12
23
26
17
-2
-32
-69
-109
-146
-176
-193
-195
-180
-149
-107
-58
-11
29
55
66
60
39
7
-30
-65
-94
-110
-113
-103
-81
-53
-24
2
18
23
15
-5
-33
-66
-99
-126
-144
-151
-144
-127
-101
-70
-38
-10
11
22
22
12
-6
-31
-59
-85
-106
-119
-124
-118
-104
-82
-57
-32
-9
6
13
10
-3
-23
-48
-73
-95
-110
-117
-113
-99
-78
-52
-26
-2
16
25
25
15
-2
-24
-48
-71
-88
-99
-102
-96
-84
-67
-49
-32
-19
-13
-14
-22
-37
-54
-73
-91
-104
-112
-114
-110
-100
-85
-68
-49
-31
-15
-3
5
7
3
-7
-21
-39
-58
-76
-89
-96
-95
-86
-68
-47
-23
-2
13
18
13
-4
-29
-59
-90
-117
-136
-142
-136
-116
-85
-48
-8
29
60
82
92
90
79
60
37
13
-8
-24
-34
-35
-29
-16
1
20
38
52
62
64
60
48
32
13
-5
-20
-29
-31
-26
-13
5
26
46
63
75
80
78
69
55
37
16
-5
-26
-46
-64
-78
-89
-95
-96
-91
-82
-68
-51
-35
-20
-11
-8
-12
-21
-36
-51
-64
-72
-74
-68
-56
-40
-24
-12
-5
-7
-18
-35
-56
-78
-95
-106
-109
-104
-92
-76
-59
-45
-36
-34
-39
-49
-64
-80
-95
-107
-114
-115
-111
-102
-90
-75
-60
-46
-34
-26
-22
-23
-29
-38
-51
-66
-80
-92
-100
-101
-95
-79
-56
-25
12
52
92
132
169
202
233
265
300
341
392
455
532
620
720
827
937
1045
1148
1241
1323
1390
1441
1474
1488
1479
1448
1392
1312
1211
1093
965
833
706
591
493
414
354
308
272
240
205
166
121
73
25
-17
-50
-69
-73
-64
-46
-24
-4
11
16
12
-1
-20
-41
-58
-70
-74
-69
-57
-41
-22
-5
8
14
13
4
-11
-31
-54
-77
-98
-114
-126
-131
-129
-121
-109
-92
-74
-58
-44
-36
-34
-41
-57
-79
-107
-137
-166
-190
-205
-210
-202
-183
-155
-123
-89
-60
-39
-29
-30
-42
-62
-86
-108
-126
-135
-135
-125
-108
-87
-66
-49
-38
-35
-40
-50
-64
-78
-91
-101
-106
-109
-109
-110
-112
-117
-125
-135
-145
-153
-158
-160
-157
-150
-140
-128
-116
-106
-96
-87
-79
-69
-58
-46
-34
-22
-14
-11
-15
-25
-42
-63
-85
-105
-121
-130
-130
-121
-106
-87
-67
-48
-35
-28
-30
-39
-54
-72
-91
-108
-121
-128
-128
-121
-108
-92
-74
-55
-39
-27
-18
-15
-17
-24
-37
-55
-77
-103
-129
-155
-176
-189
-193
-186
-167
-139
-103
-65
-30
-1
18
26
22
9
-10
-30
-46
-55
-56
-49
-34
-15
3
18
26
24
14
-4
-27
-52
-74
-92
-102
-103
-95
-79
-58
-35
-13
5
17
20
16
4
-14
-34
-55
-72
-83
-85
-79
-64
-43
-18
7
29
46
54
52
42
25
3
-20
-41
-57
-65
-64
-54
-37
-16
7
27
43
51
51
43
28
9
-11
-29
-42
-49
-49
-42
-31
-17
-4
6
11
10
4
-8
-23
-40
-54
-65
-69
-66
-56
-39
-17
8
35
59
80
95
102
102
95
80
61
39
18
-1
-14
-20
-17
-7
10
32
55
78
95
104
104
93
71
40
3
-36
-73
-104
-126
-135
-131
-115
-88
-53
-16
19
48
67
76
72
59
40
18
-2
-17
-25
-23
-13
3
22
41
56
63
61
50
30
5
-23
-49
-71
-85
-90
-86
-74
-56
-37
-19
-5
1
0
-11
-28
-50
-73
-95
-111
-120
-121
-113
-97
-75
-50
-25
-3
14
24
27
21
9
-10
-32
-55
-75
-90
-98
-97
-87
-68
-44
-18
7
24
33
29
12
-15
-50
-86
-119
-144
-156
-154
-139
-111
-75
-37
-3
25
41
45
38
20
-4
-32
-57
-79
-93
-100
-98
-88
-74
-55
-37
-19
-6
3
5
0
-11
-28
-49
-71
-93
-112
-124
-129
-125
-112
-91
-64
-34
-5
18
34
40
35
19
-3
-30
-56
-79
-93
-97
-91
-75
-53
-29
-5
13
24
25
18
3
-18
-41
-63
-82
-97
-106
-108
-106
-101
-93
-85
-79
-75
-75
-77
-81
-87
-91
-93
-92
-85
-73
-56
-35
-13
8
26
38
42
38
26
7
-16
-42
-67
-89
-106
-116
-119
-116
-107
-94
-79
-63
-49
-38
-32
-32
-36
-45
-57
-70
-82
-91
-94
-91
-82
-67
-47
-26
-6
10
20
22
16
1
-19
-43
-68
-90
-107
-116
-118
-111
-97
-79
-58
-39
-24
-17
-18
-28
-45
-69
-95
-119
-138
-148
-149
-138
-117
-89
-58
-29
-4
12
16
8
-11
-38
-71
-104
-133
-155
-167
-167
-157
-137
-110
-80
-50
-23
-4
7
7
-2
-21
-46
-73
-101
-125
-141
-149
-146
-132
-110
-82
-52
-24
-3
10
12
2
-16
-40
-67
-91
-108
-114
-110
-95
-71
-45
-19
-1
7
1
-18
-48
-86
-124
-159
-183
-193
-187
-166
-134
-93
-52
-13
16
34
39
31
12
-13
-42
-70
-94
-111
-121
-122
-116
-103
-87
-70
-54
-41
-33
-32
-36
-47
-62
-79
-95
-109
-119
-123
-120
-111
-98
-83
-67
-54
-45
-41
-43
-51
-63
-77
-92
-106
-117
-123
-124
-119
-109
-95
-78
-60
-44
-29
-19
-14
-15
-21
-32
-45
-60
-74
-84
-88
-85
-73
-54
-29
0
29
52
67
70
59
35
-1
-43
-86
-123
-149
-158
-149
-122
-81
-30
22
70
106
126
128
114
87
52
17
-13
-33
-39
-34
-17
6
30
50
62
63
52
30
0
-32
-63
-89
-105
-110
-103
-86
-61
-32
-2
24
44
55
57
50
36
15
-8
-33
-55
-74
-90
-100
-105
-106
-102
-96
-88
-78
-68
-59
-52
-47
-45
-47
-52
-60
-70
-81
-90
-97
-100
-97
-90
-78
-64
-50
-38
-31
-31
-39
-53
-74
-96
-118
-136
-146
-147
-139
-123
-100
-75
-51
-31
-19
-15
-21
-34
-54
-76
-98
-117
-130
-135
-132
-120
-102
-78
-50
-22
6
31
52
69
82
93
104
119
140
172
217
279
356
449
555
670
789
906
1016
1115
1200
1270
1326
1367
1396
1414
1422
1419
1406
1379
1337
1279
1204
1113
1009
895
775
655
540
432
337
255
187
134
93
62
40
24
11
-1
-13
-27
-43
-61
-79
-96
-108
-115
-115
-105
-87
-63
-34
-4
23
44
56
58
48
30
4
-25
-54
-80
-101
-115
-120
-118
-111
-99
-86
-72
-61
-52
-47
-47
-51
-60
-73
-91
-111
-135
-158
-180
-198
-209
-212
-205
-189
-165
-136
-106
-78
-58
-47
-47
-57
-74
-95
-116
-131
-137
-133
-121
-101
-79
-59
-46
-41
-48
-64
-87
-113
-138
-157
-167
-167
-157
-139
-118
-97
-80
-70
-69
-77
-91
-109
-128
-145
-157
-162
-160
-151
-136
-118
-98
-78
-59
-44
-34
-29
-30
-36
-47
-62
-80
-98
-114
-126
-133
-133
-126
-113
-97
-79
-63
-50
-44
-46
-55
-72
-94
-117
-138
-156
-166
-167
-159
-142
-119
-91
-63
-37
-18
-7
-8
-18
-39
-68
-101
-134
-165
-189
-202
-205
-196
-177
-149
-117
-84
-53
-29
-14
-8
-11
-21
-37
-54
-70
-83
-88
-86
-77
-62
-43
-23
-6
5
7
1
-14
-35
-59
-82
-99
-106
-103
-89
-65
-37
-10
10
18
11
-12
-48
-93
-139
-180
-209
-221
-215
-192
-153
-105
-55
-8
31
58
72
74
64
48
26
2
-22
-43
-60
-73
-80
-81
-77
-66
-52
-36
-20
-7
2
3
-3
-16
-34
-56
-78
-96
-109
-114
-111
-101
-86
-67
-47
-29
-14
-6
-4
-8
-18
-32
-49
-67
-85
-100
-112
-119
-121
-117
-109
-98
-84
-70
-57
-47
-40
-38
-40
-45
-52
-58
-63
-63
-58
-47
-31
-9
14
38
59
75
83
82
71
52
26
-3
-32
-56
-72
-78
-73
-56
-32
-2
29
55
73
81
77
62
39
11
-15
-38
-51
-55
-48
-32
-11
12
32
46
51
47
33
11
-15
-42
-66
-83
-92
-91
-81
-62
-39
-14
10
28
39
40
30
12
-14
-43
-73
-99
-117
-126
-124
-111
-89
-60
-30
-2
19
33
35
27
10
-12
-38
-61
-80
-90
-92
-86
-71
-52
-30
-9
9
21
26
22
12
-7
-31
-59
-90
-120
-147
-168
-182
-186
-179
-162
-136
-103
-68
-33
-3
20
34
37
32
20
5
-9
-19
-23
-19
-8
8
26
43
54
58
52
36
12
-16
-45
-71
-89
-98
-96
-84
-63
-37
-10
13
29
34
28
12
-12
-41
-70
-95
-112
-118
-113
-97
-72
-43
-13
12
31
39
36
22
1
-26
-54
-79
-99
-110
-112
-104
-88
-66
-40
-15
8
24
33
32
22
4
-21
-49
-78
-104
-125
-138
-141
-134
-118
-95
-67
-40
-14
5
17
21
16
5
-11
-28
-43
-54
-58
-56
-49
-37
-24
-12
-3
2
1
-3
-12
-22
-32
-42
-50
-56
-62
-67
-74
-83
-92
-102
-111
-118
-121
-119
-113
-103
-91
-77
-64
-52
-43
-37
-31
-26
-20
-14
-7
-1
4
5
0
-9
-24
-44
-64
-84
-98
-106
-105
-96
-80
-60
-41
-25
-17
-17
-28
-47
-71
-98
-122
-140
-150
-150
-139
-118
-92
-63
-33
-7
14
27
31
27
16
-1
-22
-43
-63
-79
-90
-94
-91
-83
-70
-55
-40
-29
-22
-21
-27
-39
-56
-76
-95
-112
-125
-132
-132
-126
-113
-96
-76
-56
-37
-21
-11
-7
-9
-17
-29
-43
-57
-68
-74
-75
-70
-59
-44
-27
-12
1
8
8
0
-14
-35
-57
-81
-100
-114
-119
-115
-101
-79
-52
-24
0
16
20
9
-15
-50
-92
-135
-172
-198
-207
-199
-174
-134
-87
-37
7
42
61
65
53
30
-1
-34
-64
-88
-102
-105
-98
-84
-64
-42
-21
-5
5
8
3
-9
-26
-47
-68
-86
-100
-108
-109
-102
-88
-70
-50
-31
-16
-7
-7
-14
-30
-52
-77
-103
-125
-140
-147
-143
-129
-105
-74
-39
-3
29
54
70
75
71
58
39
17
-3
-19
-28
-29
-22
-9
9
28
45
57
62
59
49
33
13
-6
-22
-33
-36
-31
-18
0
21
42
60
71
77
74
65
51
33
14
-5
-22
-36
-46
-51
-52
-49
-42
-31
-18
-4
9
19
25
24
16
2
-18
-42
-65
-85
-99
-105
-102
-90
-71
-50
-30
-14
-5
-6
-17
-36
-59
-85
-107
-123
-131
-127
-114
-93
-67
-42
-22
-10
-11
-23
-46
-77
-112
-145
-171
-186
-188
-176
-151
-117
-79
-41
-9
14
24
23
11
-9
-34
-59
-82
-98
-108
-110
-104
-93
-78
-60
-43
-27
-13
-3
5
10
16
22
33
49
74
108
155
215
289
376
474
580
692
805
916
1020
1113
1194
1261
1313
1350
1374
1385
1386
1375
1355
1324
1283
1232
1170
1099
1019
932
841
747
654
564
479
401
331
269
217
173
137
108
85
66
50
36
22
9
-5
-19
-31
-41
-46
-47
-42
-31
-16
1
17
28
33
27
11
-14
-46
-83
-118
-149
-170
-180
-177
-161
-136
-104
-71
-41
-18
-4
-2
-10
-29
-53
-82
-110
-135
-153
-163
-164
-156
-141
-120
-96
-74
-58
-49
-50
-62
-84
-113
-145
-177
-202
-218
-222
-212
-190
-159
-123
-87
-56
-35
-26
-30
-44
-67
-94
-121
-143
-156
-160
-153
-137
-114
-88
-62
-42
-29
-26
-33
-50
-74
-101
-129
-154
-172
-181
-180
-170
-151
-127
-101
-75
-53
-38
-31
-33
-43
-60
-81
-103
-124
-139
-146
-145
-135
-118
-97
-75
-55
-42
-37
-43
-59
-84
-113
-143
-170
-190
-200
-199
-188
-167
-140
-110
-80
-52
-30
-13
-3
0
-4
-13
-28
-46
-67
-90
-112
-131
-144
-150
-148
-137
-119
-96
-70
-46
-28
-16
-14
-19
-32
-48
-64
-77
-83
-81
-72
-58
-40
-23
-10
-4
-6
-16
-32
-53
-75
-94
-108
-115
-113
-103
-87
-67
-47
-29
-17
-12
-15
-27
-47
-72
-100
-127
-150
-166
-172
-167
-150
-124
-91
-55
-20
9
29
38
34
18
-6
-35
-64
-90
-107
-114
-110
-96
-75
-51
-28
-11
-4
-9
-25
-52
-87
-123
-158
-186
-203
-207
-196
-173
-141
-103
-64
-30
-4
10
12
3
-16
-42
-69
-95
-115
-128
-132
-128
-115
-97
-76
-54
-34
-18
-7
-4
-8
-19
-36
-59
-84
-109
-131
-147
-154
-151
-138
-115
-84
-51
-17
12
32
43
42
32
15
-6
-25
-39
-46
-43
-31
-11
12
36
55
68
71
63
47
23
-4
-32
-57
-75
-86
-88
-82
-69
-53
-35
-18
-5
4
6
3
-5
-17
-31
-44
-55
-61
-61
-55
-44
-28
-11
6
20
29
31
26
14
-2
-21
-41
-59
-73
-82
-87
-87
-83
-77
-70
-63
-56
-50
-46
-43
-41
-41
-43
-45
-48
-50
-50
-46
-39
-28
-14
3
20
34
42
43
36
20
-3
-30
-57
-82
-100
-111
-113
-107
-94
-77
-59
-43
-31
-24
-23
-26
-33
-41
-49
-55
-57
-56
-51
-42
-29
-14
1
15
27
34
35
29
16
-2
-25
-50
-74
-95
-109
-116
-113
-103
-86
-65
-43
-24
-9
-1
-2
-9
-22
-38
-53
-65
-71
-71
-63
-49
-31
-11
7
21
30
31
27
16
2
-14
-30
-45
-58
-69
-76
-81
-82
-81
-78
-72
-64
-55
-46
-39
-34
-33
-37
-43
-52
-61
-67
-69
-64
-53
-37
-16
4
22
33
36
30
16
-4
-27
-49
-67
-80
-85
-85
-79
-71
-62
-55
-51
-49
-51
-56
-61
-66
-70
-72
-72
-70
-65
-57
-46
-34
-20
-7
4
13
16
14
5
-8
-26
-45
-64
-79
-90
-94
-91
-83
-71
-59
-47
-39
-34
-34
-38
-45
-54
-62
-69
-74
-76
-74
-71
-65
-57
-48
-39
-29
-21
-15
-11
-10
-14
-23
-36
-54
-74
-96
-118
-137
-151
-160
-161
-155
-142
-124
-103
-81
-60
-44
-33
-28
-29
-33
-40
-46
-50
-50
-45
-35
-22
-9
2
10
10
4
-9
-27
-48
-68
-85
-96
-99
-95
-85
-71
-57
-43
-35
-32
-36
-45
-59
-75
-90
-102
-110
-112
-108
-98
-83
-64
-45
-25
-8
4
11
11
4
-10
-28
-50
-71
-90
-103
-108
-105
-93
-75
-52
-29
-10
2
5
-2
-19
-43
-71
-98
-121
-137
-142
-136
-121
-98
-72
-45
-22
-5
3
3
-5
-19
-37
-55
-72
-86
-94
-98
-96
-91
-84
-77
-70
-65
-63
-63
-66
-71
-77
-83
-89
-94
-97
-96
-93
-86
-75
-61
-45
-28
-11
2
11
14
10
-1
-16
-35
-53
-70
-81
-86
-83
-72
-55
-35
-14
5
19
28
30
24
14
-1
-16
-30
-41
-47
-46
-38
-25
-8
12
31
48
60
66
65
57
44
27
9
-7
-19
-25
-24
-16
-1
19
40
61
77
86
87
78
61
37
9
-19
-43
-60
-66
-61
-46
-22
5
33
56
70
73
65
46
19
-12
-42
-67
-85
-95
-95
-90
-80
-68
-59
-53
-52
-56
-64
-76
-88
-100
-109
-116
-118
-116
-110
-99
-85
-69
-50
-32
-15
-2
5
6
-1
-14
-34
-57
-81
-102
-118
-127
-127
-120
-106
-87
-67
-49
-35
-26
-25
-30
-40
-53
-67
-81
-90
-95
-95
-89
-79
-65
-51
-37
-26
-18
-14
-14
-17
-20
-21
-18
-7
14
45
89
145
211
288
372
462
556
651
746
839
930
1018
1102
1181
1257
1327
1389
1443
1484
1511
1518
1504
1466
1403
1318
1212
1091
962
831
704
589
488
404
336
282
240
204
173
144
113
82
50
19
-9
-32
-50
-60
-63
-59
-49
-33
-12
10
32
52
67
76
76
66
48
22
-9
-43
-74
-101
-121
-131
-132
-125
-111
-94
-76
-61
-50
-45
-47
-55
-66
-80
-95
-107
-116
-121
-121
-116
-108
-97
-85
-74
-65
-60
-59
-64
-74
-88
-104
-121
-135
-145
-149
-145
-135
-118
-99
-79
-63
-52
-49
-54
-66
-84
-105
-126
-143
-154
-159
-156
-147
-133
-117
-99
-82
-68
-57
-51
-50
-54
-62
-72
-85
-98
-109
-116
-120
-118
-111
-100
-86
-71
-59
-51
-48
-51
-60
-74
-91
-108
-123
-134
-139
-137
-128
-114
-97
-78
-61
-46
-37
-34
-37
-45
-58
-72
-87
-98
-106
-108
-105
-97
-86
-73
-62
-53
-49
-50
-56
-67
-81
-95
-108
-117
-119
-115
-104
-87
-66
-43
-20
-2
10
14
9
-4
-24
-48
-73
-96
-113
-124
-126
-119
-105
-85
-62
-40
-21
-7
-1
-2
-12
-27
-47
-67
-87
-102
-110
-112
-105
-91
-72
-50
-27
-7
6
12
9
-3
-23
-48
-75
-99
-116
-124
-119
-103
-76
-42
-7
24
47
57
52
32
2
-35
-72
-104
-127
-136
-132
-115
-91
-63
-36
-15
-3
-1
-8
-23
-42
-61
-79
-92
-99
-99
-93
-82
-66
-49
-30
-12
3
15
22
23
18
7
-11
-32
-54
-76
-94
-105
-109
-104
-91
-72
-50
-29
-10
3
9
8
1
-11
-25
-37
-46
-49
-46
-37
-23
-6
11
26
37
42
41
33
19
1
-18
-36
-51
-60
-62
-57
-44
-24
0
25
50
71
86
93
92
82
66
45
23
3
-12
-21
-23
-16
-2
16
35
52
63
66
60
44
20
-9
-39
-66
-85
-95
-93
-79
-56
-28
2
29
48
58
57
45
25
0
-27
-51
-70
-81
-83
-76
-61
-42
-20
1
18
29
32
28
15
-3
-25
-48
-68
-83
-90
-89
-79
-62
-40
-16
7
24
36
39
33
20
2
-17
-37
-53
-64
-70
-69
-63
-54
-42
-29
-18
-8
-1
2
2
0
-5
-13
-21
-30
-37
-43
-45
-42
-35
-24
-11
4
18
28
33
31
21
6
-13
-33
-52
-65
-72
-70
-59
-42
-19
4
26
43
51
50
40
21
-4
-31
-57
-79
-94
-100
-95
-82
-61
-37
-12
8
22
27
21
6
-15
-39
-63
-81
-92
-93
-84
-66
-42
-16
9
28
38
38
29
11
-11
-35
-56
-71
-78
-76
-64
-46
-23
1
23
39
49
50
44
30
12
-8
-29
-47
-61
-70
-72
-68
-59
-46
-30
-15
0
10
15
15
8
-3
-19
-37
-54
-68
-78
-81
-78
-68
-53
-35
-16
2
15
22
23
17
5
-13
-33
-54
-73
-87
-96
-97
-92
-80
-64
-45
-27
-11
-1
2
-2
-13
-28
-46
-62
-75
-81
-80
-72
-57
-38
-17
2
16
24
24
16
1
-20
-45
-71
-95
-114
-129
-135
-135
-126
-110
-90
-66
-42
-20
-3
8
11
6
-5
-20
-37
-53
-64
-71
-70
-64
-53
-40
-26
-15
-10
-10
-16
-28
-43
-59
-73
-82
-85
-82
-71
-55
-35
-14
4
18
27
27
20
6
-13
-35
-56
-75
-87
-93
-90
-79
-62
-41
-20
-1
12
18
15
2
-18
-42
-68
-92
-109
-119
-118
-109
-91
-68
-44
-21
-3
9
13
10
1
-12
-28
-45
-59
-72
-81
-86
-87
-86
-82
-76
-68
-61
-54
-49
-46
-46
-49
-55
-62
-68
-73
-73
-68
-57
-39
-18
5
27
43
51
49
37
17
-8
-36
-62
-82
-94
-97
-91
-77
-59
-41
-24
-11
-5
-5
-10
-18
-29
-40
-48
-53
-54
-51
-42
-30
-15
1
18
33
45
53
54
49
38
23
5
-13
-29
-39
-41
-35
-20
3
31
61
89
111
124
127
118
100
73
42
12
-14
-32
-38
-33
-17
7
36
66
91
107
113
106
88
61
29
-4
-32
-53
-63
-62
-51
-32
-9
14
33
45
49
45
34
17
-2
-21
-37
-50
-60
-65
-68
-70
-70
-70
-69
-66
-62
-57
-50
-42
-35
-29
-27
-29
-33
-40
-47
-52
-53
-50
-41
-28
-12
1
11
13
7
-7
-29
-55
-81
-104
-119
-125
-120
-104
-80
-50
-19
9
32
44
47
38
21
-3
-30
-56
-77
-91
-95
-90
-75
-53
-27
1
28
51
69
84
95
106
119
139
169
211
269
342
430
530
640
756
872
984
1088
1182
1262
1328
1381
1419
1446
1460
1463
1454
1434
1399
1351
1288
1209
1117
1013
900
781
661
543
431
330
240
166
106
62
32
14
5
2
2
0
-5
-14
-29
-47
-67
-85
-98
-103
-97
-82
-57
-26
8
39
63
76
77
64
40
8
-29
-65
-96
-119
-130
-130
-118
-97
-70
-41
-13
9
24
29
24
11
-9
-34
-60
-84
-103
-115
-118
-114
-103
-86
-67
-48
-32
-21
-17
-20
-30
-44
-62
-80
-96
-109
-115
-115
-109
-97
-82
-65
-48
-34
-24
-20
-21
-29
-41
-56
-73
-89
-101
-108
-108
-101
-87
-67
-44
-21
0
14
20
15
0
-23
-52
-84
-113
-135
-148
-149
-138
-117
-89
-57
-26
0
17
24
20
7
-14
-38
-62
-82
-95
-98
-93
-79
-59
-36
-14
4
16
19
15
4
-12
-31
-49
-64
-76
-83
-87
-86
-84
-80
-75
-70
-66
-62
-58
-54
-51
-49
-49
-49
-51
-51
-50
-46
-37
-22
-4
16
37
54
66
70
65
52
33
10
-11
-29
-39
-42
-36
-23
-6
11
26
35
38
33
20
2
-19
-39
-57
-69
-75
-73
-64
-47
-26
-2
22
43
60
69
71
65
52
35
16
-3
-19
-29
-33
-31
-23
-12
1
13
23
28
28
24
15
4
-8
-19
-26
-29
-26
-17
-4
13
33
54
73
89
100
104
101
91
75
56
35
15
0
-9
-11
-6
6
22
39
54
63
66
60
46
26
2
-23
-44
-59
-65
-61
-47
-24
5
38
70
100
124
141
148
146
136
119
99
79
60
47
40
42
53
70
92
116
138
155
164
163
153
133
107
77
47
20
1
-9
-9
0
17
38
60
79
90
92
84
67
42
14
-14
-37
-52
-56
-49
-31
-5
25
55
81
98
105
100
86
63
36
9
-15
-33
-43
-44
-36
-22
-4
15
32
45
51
49
41
27
9
-10
-29
-46
-60
-68
-71
-69
-63
-53
-39
-24
-8
8
20
30
35
36
32
23
13
3
-5
-10
-10
-5
5
18
31
42
49
51
45
34
17
-1
-20
-35
-46
-49
-46
-36
-22
-4
14
30
41
46
45
37
23
6
-11
-28
-39
-44
-42
-32
-15
6
28
48
64
71
71
61
44
22
-3
-27
-48
-62
-68
-66
-57
-41
-22
-2
17
33
42
45
40
28
10
-11
-33
-53
-70
-81
-84
-80
-68
-52
-31
-10
9
25
36
40
37
29
17
4
-9
-20
-26
-26
-21
-11
3
19
34
46
54
56
52
41
27
10
-7
-20
-28
-30
-23
-9
11
35
59
82
100
111
116
115
109
100
90
84
82
87
99
119
146
177
210
243
274
299
318
330
336
335
333
331
333
343
361
390
429
475
524
573
617
652
677
692
698
700
700
706
719
745
784
835
896
964
1034
1103
1167
1223
1270
1306
1333
1352
1365
1375
1385
1397
1413
1435
1464
1499
1538
1578
1617
1651
1676
1691
1695
1688
1671
1647
1618
1589
1559
1531
1505
1478
1450
1417
1376
1326
1264
1192
1108
1015
916
815
713
616
527
447
379
322
277
242
213
190
168
145
119
89
55
17
-22
-62
-100
-134
-162
-183
-198
-205
-205
-200
-191
-180
-170
-162
-158
-161
-169
-184
-203
-224
-244
-260
-269
-270
-263
-248
-229
-209
-193
-184
-186
-198
-220
-250
-281
-310
-332
-342
-339
-324
-298
-266
-232
-201
-178
-164
-163
-171
-188
-209
-233
-254
-272
-283
-288
-285
-276
-262
-245
-228
-211
-198
-191
-190
-196
-211
-232
-258
-286
-312
-333
-346
-349
-342
-324
-299
-271
-242
-218
-201
-193
-196
-209
-229
-253
-278
-300
-315
-323
-322
-313
-297
-277
-255
-236
-221
-213
-215
-224
-242
-265
-290
-315
-335
-348
-352
-347
-333
-314
-293
-272
-256
-247
-247
-256
-274
-297
-322
-347
-367
-380
-385
-380
-367
-348
-325
-301
-281
-266
-260
-264
-277
-299
-327
-358
-387
-411
-426
-430
-423
-405
-381
-352
-324
-301
-286
-281
-288
-304
-328
-355
-384
-410
-431
-445
-451
-450
-443
-431
-418
-404
-393
-385
-382
-385
-394
-408
-426
-445
-464
-481
-494
-501
-501
-495
-484
-469
-453
-439
-428
-421
-420
-425
-434
-446
-459
-470
-478
-481
-478
-469
-456
-440
-424
-408
-397
-391
-392
-399
-412
-428
-444
-459
-468
-471
-465
-450
-429
-401
-371
-342
-316
-297
-285
-282
-287
-298
-314
-331
-346
-357
-360
-355
-340
-315
-283
-247
-210
-176
-149
-132
-127
-133
-148
-170
-194
-216
-232
-238
-232
-214
-187
-152
-115
-80
-51
-31
-23
-28
-42
-65
-91
-117
-139
-153
-156
-149
-131
-106
-77
-48
-22
-3
7
9
2
-11
-28
-44
-57
-65
-66
-60
-48
-31
-12
7
23
33
36
30
16
-5
-32
-62
-91
-115
-132
-139
-136
-121
-98
-69
-37
-7
18
36
43
40
28
8
-17
-42
-65
-81
-89
-88
-76
-56
-31
-3
21
38
44
36
15
-18
-59
-102
-140
-169
-182
-179
-159
-125
-82
-36
6
39
58
63
53
32
3
-28
-58
-83
-99
-106
-104
-93
-76
-55
-32
-10
8
20
24
18
3
-20
-51
-86
-120
-149
-170
-180
-175
-157
-128
-92
-54
-19
8
23
27
18
0
-24
-50
-73
-89
-96
-94
-82
-64
-43
-21
-1
13
21
22
15
3
-15
-36
-59
-80
-99
-113
-122
-124
-120
-110
-95
-79
-62
-47
-37
-31
-30
-33
-39
-46
-52
-54
-53
-47
-38
-25
-11
2
12
19
20
14
2
-17
-41
-68
-97
-123
-144
-157
-161
-153
-136
-110
-79
-47
-19
2
14
14
3
-15
-37
-59
-76
-86
-85
-75
-57
-36
-13
4
14
15
5
-14
-39
-65
-88
-105
-114
-112
-101
-82
-60
-39
-22
-12
-11
-20
-36
-58
-83
-105
-124
-135
-138
-132
-118
-98
-74
-50
-27
-8
4
10
9
1
-12
-30
-50
-69
-86
-98
-104
-103
-96
-81
-63
-41
-20
-2
10
15
10
-2
-23
-50
-79
-107
-131
-147
-153
-147
-132
-108
-79
-50
-23
-4
6
6
-4
-20
-39
-58
-73
-81
-80
-70
-53
-31
-8
13
29
36
35
26
9
-12
-35
-56
-73
-83
-85
-80
-68
-53
-37
-23
-14
-12
-17
-30
-47
-68
-88
-104
-114
-117
-111
-98
-79
-57
-35
-15
1
10
11
7
-4
-20
-38
-58
-77
-93
-105
-111
-111
-105
-92
-75
-54
-31
-10
7
18
21
17
6
-11
-31
-50
-65
-75
-78
-72
-61
-45
-28
-13
-4
-2
-7
-21
-40
-61
-83
-99
-109
-109
-100
-83
-59
-32
-6
17
33
41
40
31
16
-3
-22
-39
-51
-58
-59
-54
-45
-33
-20
-9
0
4
3
-2
-12
-24
-39
-54
-67
-77
-83
-83
-78
-67
-52
-35
-16
1
15
23
24
19
6
-11
-32
-53
-72
-85
-90
-87
-75
-55
-32
-7
13
27
30
22
1
-28
-64
-100
-132
-155
-166
-162
-145
-115
-78
-36
3
35
58
68
66
53
31
4
-23
-47
-64
-71
-68
-55
-33
-6
21
45
61
65
56
34
0
-40
-82
-119
-146
-158
-154
-134
-100
-57
-12
31
65
87
94
87
68
41
10
-20
-46
-64
-73
-73
-63
-47
-26
-3
18
36
46
48
41
26
5
-19
-44
-64
-77
-81
-75
-60
-40
-18
2
14
16
7
-11
-38
-67
-94
-115
-126
-125
-112
-89
-58
-26
6
34
53
64
66
60
48
32
13
-6
-23
-37
-47
-51
-48
-39
-25
-7
13
30
43
49
46
35
17
-5
-29
-49
-62
-68
-65
-55
-41
-26
-13
-6
-6
-13
-26
-43
-61
-77
-89
-94
-94
-86
-73
-55
-34
-12
10
31
48
62
69
70
64
52
35
15
-6
-26
-40
-48
-48
-41
-27
-10
9
27
40
48
49
44
32
16
-3
-22
-40
-55
-66
-72
-74
-70
-62
-52
-40
-28
-17
-9
-5
-5
-10
-17
-26
-34
-40
-43
-40
-32
-19
-3
13
27
37
40
35
23
5
-18
-42
-64
-80
-90
-90
-81
-63
-40
-13
14
38
56
65
65
57
41
19
-4
-26
-43
-54
-56
-50
-37
-19
0
17
30
35
32
20
1
-23
-48
-71
-89
-100
-101
-93
-76
-53
-26
1
26
45
57
60
55
42
24
4
-16
-32
-42
-45
-41
-29
-12
8
27
42
51
54
48
36
18
-1
-20
-35
-44
-46
-40
-26
-6
17
42
65
84
96
100
95
81
60
34
6
-21
-43
-56
-59
-51
-33
-6
26
59
88
111
125
127
119
104
83
61
43
31
29
36
51
72
96
118
135
144
143
134
116
92
67
44
25
14
11
17
30
48
67
84
96
101
96
83
61
34
5
-23
-47
-64
-72
-72
-64
-49
-32
-16
-2
7
9
4
-6
-19
-35
-49
-60
-67
-69
-64
-55
-41
-24
-6
12
28
40
48
49
44
33
17
-3
-24
-43
-59
-67
-67
-58
-40
-16
11
38
60
73
75
64
42
10
-27
-65
-99
-124
-137
-135
-119
-91
-53
-8
39
84
126
163
195
224
253
285
323
372
433
507
595
695
805
919
1035
1146
1250
1340
1414
1470
1506
1521
1516
1490
1446
1384
1308
1219
1121
1016
907
799
693
592
498
413
337
270
212
163
122
90
65
48
39
36
40
47
55
64
70
71
68
60
49
34
20
7
-2
-7
-7
-2
6
16
26
34
37
35
26
11
-10
-35
-63
-89
-113
-130
-139
-138
-129
-111
-88
-64
-41
-23
-12
-11
-18
-33
-52
-72
-91
-104
-111
-111
-103
-89
-72
-54
-38
-26
-20
-21
-30
-44
-63
-85
-106
-124
-137
-142
-140
-129
-112
-91
-68
-47
-31
-22
-21
-30
-46
-67
-91
-112
-128
-137
-136
-127
-109
-87
-63
-40
-23
-13
-12
-19
-34
-53
-73
-92
-107
-115
-116
-110
-100
-86
-72
-60
-53
-51
-57
-67
-82
-98
-113
-125
-131
-131
-124
-111
-94
-73
-52
-33
-17
-6
-2
-4
-12
-25
-41
-59
-76
-92
-103
-109
-107
-99
-85
-65
-42
-18
3
19
27
26
15
-3
-26
-50
-73
-91
-101
-101
-92
-76
-55
-33
-12
2
10
8
-1
-17
-37
-57
-76
-90
-98
-98
-91
-78
-60
-40
-21
-5
7
12
10
1
-13
-30
-48
-64
-76
-81
-78
-67
-50
-29
-7
11
24
30
27
17
1
-17
-34
-48
-56
-59
-57
-53
-48
-47
-50
-58
-70
-85
-99
-109
-113
-109
-96
-76
-51
-24
2
26
45
60
71
78
82
83
82
78
70
59
44
28
11
-3
-12
-15
-11
1
18
38
57
72
82
83
75
61
43
24
7
-5
-10
-6
5
23
46
70
94
113
128
137
138
134
124
111
97
84
74
68
69
75
87
102
120
137
151
161
165
162
152
138
120
102
87
76
71
73
83
98
116
135
152
165
171
171
163
150
133
114
96
80
69
61
57
56
56
56
55
52
47
41
35
29
25
22
21
23
26
30
36
44
55
67
81
95
109
119
123
120
109
90
65
37
10
-12
-27
-32
-26
-11
10
33
53
67
73
68
55
35
12
-11
-31
-44
-50
-48
-39
-24
-5
14
33
48
59
65
65
59
47
32
13
-5
-21
-33
-39
-37
-28
-13
7
28
48
63
71
72
65
51
33
12
-7
-22
-32
-35
-32
-24
-14
-2
9
18
23
24
21
15
7
-3
-14
-25
-36
-45
-51
-55
-54
-49
-39
-26
-9
8
23
35
41
41
33
19
1
-18
-34
-46
-51
-48
-38
-23
-5
11
24
30
27
16
-2
-25
-50
-74
-93
-104
-106
-98
-81
-57
-29
-1
24
42
51
51
41
25
5
-16
-35
-49
-55
-54
-46
-32
-15
2
16
27
32
30
21
8
-11
-31
-52
-71
-86
-96
-98
-93
-82
-64
-45
-25
-8
3
7
3
-7
-23
-40
-56
-66
-70
-66
-53
-35
-12
10
30
42
47
42
28
6
-20
-48
-74
-95
-108
-111
-105
-90
-68
-42
-17
5
20
27
22
8
-14
-40
-67
-91
-108
-116
-113
-100
-80
-55
-31
-10
4
9
5
-8
-27
-50
-73
-93
-107
-113
-111
-99
-80
-55
-28
-1
22
39
47
44
31
8
-22
-55
-88
-115
-133
-139
-132
-113
-85
-52
-19
8
26
33
27
11
-12
-39
-65
-86
-99
-103
-97
-83
-63
-40
-17
3
17
23
21
10
-8
-33
-61
-89
-114
-132
-141
-139
-126
-103
-75
-44
-15
8
21
24
17
1
-21
-45
-67
-83
-92
-92
-83
-67
-46
-23
-2
14
24
26
18
1
-23
-52
-82
-110
-132
-145
-147
-137
-116
-87
-54
-22
5
24
33
30
16
-5
-29
-54
-74
-89
-95
-93
-84
-69
-53
-37
-24
-16
-15
-20
-30
-45
-62
-80
-94
-104
-107
-103
-91
-73
-50
-26
-1
19
33
38
35
22
3
-21
-46
-69
-87
-97
-99
-91
-77
-58
-37
-18
-3
5
5
-1
-13
-27
-40
-49
-52
-48
-36
-17
5
29
51
68
79
81
75
61
43
21
0
-19
-34
-41
-42
-35
-21
-2
21
45
66
84
95
99
94
82
64
43
22
3
-9
-15
-12
-1
15
35
55
73
84
88
83
69
49
24
-3
-29
-51
-68
-77
-79
-74
-65
-53
-40
-28
-19
-15
-15
-19
-28
-39
-50
-62
-71
-77
-79
-77
-69
-59
-46
-33
-20
-12
-8
-11
-21
-38
-60
-84
-108
-128
-141
-145
-139
-123
-100
-71
-42
-17
2
12
11
-1
-19
-43
-68
-90
-104
-111
-107
-95
-76
-53
-30
-11
1
5
-1
-16
-37
-61
-85
-103
-113
-111
-96
-69
-30
19
74
134
195
256
316
376
437
500
569
644
727
818
916
1020
1126
1230
1328
1414
1483
1531
1552
1547
1513
1452
1369
1268
1156
1040
927
822
729
649
581
523
470
420
367
310
247
181
115
51
-4
-47
-74
-86
-82
-64
-37
-5
28
56
77
89
90
82
66
44
20
-3
-23
-39
-49
-54
-54
-49
-43
-36
-30
-26
-26
-29
-37
-48
-62
-77
-92
-105
-116
-123
-125
-123
-115
-104
-91
-77
-64
-55
-50
-50
-57
-69
-86
-104
-123
-140
-151
-155
-152
-142
-127
-108
-89
-74
-65
-65
-73
-89
-110
-132
-151
-164
-166
-158
-138
-111
-79
-47
-20
-2
5
0
-16
-40
-69
-98
-124
-145
-158
-163
-161
-152
-138
-121
-104
-88
-75
-66
-63
-64
-71
-82
-95
-108
-118
-124
-123
-116
-103
-84
-64
-45
-30
-21
-21
-30
-46
-67
-90
-112
-129
-140
-142
-136
-123
-104
-83
-61
-42
-29
-23
-24
-31
-44
-60
-77
-93
-106
-114
-116
-113
-105
-93
-79
-64
-51
-40
-33
-31
-34
-43
-57
-75
-95
-115
-133
-144
-149
-143
-129
-105
-76
-44
-14
10
26
30
23
7
-16
-41
-64
-81
-88
-87
-76
-57
-36
-15
2
12
13
5
-11
-34
-59
-84
-105
-119
-124
-119
-106
-84
-57
-30
-4
15
26
26
15
-4
-30
-58
-83
-103
-113
-113
-102
-81
-54
-24
3
24
37
38
28
7
-21
-54
-86
-113
-132
-140
-136
-120
-95
-65
-33
-4
17
29
30
19
-1
-27
-56
-84
-106
-121
-128
-124
-113
-95
-73
-50
-30
-16
-9
-12
-24
-45
-71
-102
-131
-154
-169
-170
-159
-134
-99
-58
-15
23
53
70
73
63
43
16
-11
-34
-49
-55
-49
-35
-13
11
34
53
64
67
61
47
27
4
-19
-40
-55
-63
-63
-55
-41
-22
0
21
39
51
55
50
37
16
-9
-36
-61
-81
-92
-94
-85
-66
-39
-9
21
48
66
73
69
53
27
-5
-39
-70
-95
-109
-111
-101
-80
-51
-19
13
39
56
63
58
43
19
-8
-36
-60
-78
-86
-83
-71
-51
-27
-2
20
36
44
41
29
9
-16
-43
-68
-88
-100
-103
-96
-81
-60
-37
-14
5
18
23
21
11
-4
-22
-40
-56
-68
-73
-71
-62
-48
-29
-9
11
27
36
39
33
20
0
-22
-45
-64
-76
-79
-72
-56
-32
-3
24
48
62
64
54
33
2
-33
-68
-98
-118
-126
-121
-104
-78
-46
-13
16
39
54
58
53
40
20
-3
-28
-51
-71
-86
-94
-95
-89
-77
-60
-40
-19
-2
11
16
13
3
-13
-33
-53
-69
-80
-82
-75
-60
-39
-16
7
26
38
42
37
24
5
-18
-41
-63
-81
-94
-99
-96
-87
-72
-54
-34
-14
1
11
13
8
-5
-23
-45
-65
-83
-92
-93
-83
-64
-38
-10
18
40
52
53
43
22
-6
-37
-66
-89
-102
-103
-92
-70
-42
-11
18
40
53
53
42
20
-9
-42
-73
-98
-114
-119
-113
-96
-71
-42
-14
10
25
30
23
6
-18
-46
-74
-97
-111
-114
-106
-88
-62
-31
0
26
44
51
45
29
3
-27
-58
-86
-105
-113
-110
-96
-73
-46
-19
4
18
22
15
-2
-27
-55
-81
-101
-113
-115
-106
-88
-63
-34
-6
19
38
49
53
48
36
18
-2
-23
-44
-61
-73
-79
-78
-71
-59
-43
-27
-13
-3
2
-1
-9
-23
-41
-59
-75
-86
-89
-86
-74
-56
-34
-12
8
23
31
30
21
5
-16
-39
-60
-77
-87
-88
-81
-66
-45
-22
-1
15
24
23
12
-7
-32
-60
-88
-110
-124
-127
-119
-101
-74
-42
-8
23
48
64
69
65
52
33
10
-13
-33
-47
-55
-55
-50
-39
-27
-14
-3
3
5
2
-7
-19
-35
-51
-66
-79
-87
-90
-86
-76
-60
-42
-21
-1
16
27
31
28
16
0
-20
-40
-58
-69
-74
-70
-58
-41
-20
1
19
30
33
28
15
-5
-27
-49
-67
-78
-78
-68
-47
-18
17
53
86
113
129
134
128
112
88
62
37
16
3
-1
4
17
35
55
74
89
98
99
92
78
59
37
15
-4
-18
-25
-24
-14
2
25
52
78
102
120
129
129
119
101
76
47
19
-6
-24
-34
-34
-26
-11
8
27
44
55
57
50
35
11
-17
-47
-75
-98
-112
-117
-113
-99
-79
-55
-32
-11
4
12
11
3
-10
-27
-45
-60
-70
-74
-72
-63
-49
-32
-15
0
11
16
15
7
-7
-24
-43
-59
-71
-76
-74
-65
-49
-29
-7
14
29
38
37
28
11
-11
-36
-60
-79
-88
-87
-73
-48
-11
34
84
135
186
233
277
319
360
405
458
520
597
687
791
906
1028
1150
1268
1373
1461
1526
1566
1579
1566
1528
1468
1390
1300
1201
1099
998
901
809
724
647
574
506
441
376
311
247
185
128
76
34
3
-15
-19
-11
6
30
57
83
104
118
122
115
100
77
48
17
-13
-39
-59
-70
-73
-67
-55
-39
-20
-4
7
12
9
-3
-22
-46
-71
-95
-114
-124
-125
-115
-96
-71
-43
-17
3
13
11
-3
-28
-61
-96
-128
-152
-165
-163
-147
-120
-85
-47
-12
15
31
34
24
3
-25
-55
-85
-108
-124
-131
-127
-116
-99
-78
-57
-38
-24
-16
-16
-23
-37
-55
-76
-97
-114
-127
-133
-131
-121
-107
-88
-70
-53
-42
-36
-37
-43
-54
-67
-79
-89
-94
-94
-89
-78
-64
-49
-34
-21
-11
-7
-8
-16
-28
-45
-64
-82
-97
-107
-110
-104
-91
-71
-48
-24
-4
10
15
11
-3
-23
-48
-73
-94
-109
-117
-116
-107
-91
-72
-53
-35
-21
-13
-11
-15
-25
-38
-53
-67
-80
-88
-92
-89
-81
-68
-51
-33
-16
-2
8
12
10
2
-10
-24
-39
-52
-61
-64
-61
-53
-39
-23
-5
11
23
29
30
24
12
-4
-22
-38
-52
-60
-61
-56
-44
-28
-9
9
24
33
35
30
18
0
-21
-42
-60
-74
-81
-80
-73
-59
-42
-23
-6
7
15
15
8
-5
-22
-41
-59
-73
-80
-80
-71
-55
-34
-11
10
26
33
30
17
-4
-32
-61
-88
-109
-119
-117
-104
-80
-49
-14
20
49
70
81
80
70
51
27
1
-24
-45
-59
-65
-62
-52
-34
-11
13
37
57
70
76
72
60
42
20
-3
-23
-37
-42
-39
-25
-4
22
49
74
93
103
101
90
68
41
11
-16
-37
-47
-45
-32
-9
20
50
76
94
100
94
76
48
16
-18
-47
-68
-79
-78
-67
-48
-24
1
24
43
54
58
54
44
28
10
-9
-27
-41
-51
-55
-54
-46
-34
-19
-3
12
24
30
29
21
7
-12
-33
-53
-69
-78
-79
-70
-53
-31
-6
18
37
48
50
42
25
2
-23
-48
-68
-81
-84
-78
-64
-44
-22
0
18
30
35
32
22
8
-9
-27
-42
-53
-60
-60
-56
-47
-35
-23
-12
-5
-2
-5
-13
-25
-40
-56
-71
-82
-87
-86
-79
-65
-47
-27
-6
12
25
32
31
24
12
-5
-23
-41
-57
-68
-73
-74
-69
-61
-51
-40
-30
-23
-19
-18
-21
-28
-36
-44
-52
-58
-61
-62
-59
-52
-44
-34
-23
-12
-3
4
8
9
6
-1
-11
-24
-39
-53
-66
-74
-76
-71
-61
-44
-25
-7
8
16
15
5
-14
-37
-61
-82
-95
-97
-87
-67
-39
-8
21
43
54
52
38
13
-17
-50
-79
-101
-113
-114
-105
-88
-65
-40
-17
3
16
21
19
9
-6
-24
-44
-63
-78
-87
-90
-85
-73
-56
-36
-16
1
13
17
12
0
-19
-43
-67
-90
-106
-116
-116
-108
-93
-72
-50
-30
-13
-3
-1
-6
-17
-34
-53
-71
-87
-98
-102
-100
-91
-77
-59
-40
-22
-9
-1
-1
-8
-23
-44
-69
-96
-120
-138
-148
-146
-134
-111
-81
-47
-14
13
30
33
22
-1
-34
-70
-105
-132
-147
-148
-134
-109
-77
-43
-14
6
13
8
-10
-36
-66
-95
-118
-132
-135
-128
-111
-89
-64
-39
-19
-4
4
5
0
-11
-24
-39
-53
-66
-75
-81
-82
-78
-70
-58
-44
-30
-16
-5
1
2
-4
-15
-30
-48
-67
-83
-94
-100
-99
-93
-82
-68
-54
-43
-35
-33
-36
-45
-57
-71
-85
-96
-102
-102
-96
-85
-70
-53
-36
-21
-12
-9
-12
-22
-36
-54
-73
-90
-103
-110
-110
-104
-91
-75
-57
-39
-25
-16
-14
-18
-28
-43
-61
-80
-97
-109
-116
-115
-108
-95
-78
-59
-41
-25
-16
-13
-18
-30
-47
-66
-84
-99
-108
-108
-100
-84
-62
-37
-12
11
27
36
37
30
18
3
-12
-25
-33
-34
-28
-15
2
21
41
58
69
74
72
63
48
29
8
-12
-28
-39
-43
-39
-28
-10
12
35
56
73
83
85
79
64
44
20
-5
-27
-44
-53
-56
-50
-39
-23
-7
8
19
23
20
9
-9
-32
-58
-82
-103
-117
-122
-119
-108
-91
-70
-50
-33
-22
-19
-25
-39
-59
-81
-103
-121
-132
-135
-130
-117
-99
-78
-57
-39
-27
-21
-24
-33
-48
-66
-85
-103
-117
-125
-126
-120
-107
-88
-66
-43
-21
-5
6
8
1
-13
-35
-60
-86
-109
-127
-137
-137
-127
-108
-82
-53
-24
2
22
36
43
47
49
55
69
95
135
191
264
350
448
553
661
768
869
964
1049
1125
1191
1249
1299
1342
1377
1403
1420
1424
1414
1387
1340
1273
1188
1084
967
841
711
583
462
353
258
180
119
73
40
19
5
-4
-9
-14
-19
-24
-32
-41
-50
-61
-71
-80
-86
-89
-88
-82
-71
-57
-42
-28
-16
-9
-9
-16
-30
-49
-71
-92
-110
-122
-127
-122
-111
-95
-76
-59
-46
-41
-44
-56
-76
-101
-128
-152
-171
-182
-184
-175
-157
-134
-107
-82
-60
-46
-40
-43
-55
-74
-96
-119
-140
-156
-165
-167
-163
-152
-137
-120
-103
-89
-79
-74
-74
-79
-88
-100
-112
-122
-129
-131
-128
-119
-107
-92
-79
-68
-63
-65
-74
-90
-109
-131
-150
-164
-171
-170
-159
-141
-118
-92
-68
-48
-35
-31
-35
-47
-65
-87
-111
-133
-151
-162
-166
-162
-150
-131
-108
-83
-58
-38
-26
-22
-29
-47
-72
-103
-135
-164
-185
-196
-194
-179
-153
-119
-83
-48
-19
0
7
2
-14
-37
-64
-91
-114
-130
-136
-133
-121
-103
-80
-57
-36
-19
-10
-8
-15
-29
-49
-71
-93
-111
-123
-127
-121
-108
-89
-66
-42
-22
-9
-4
-8
-21
-41
-65
-88
-108
-121
-124
-118
-103
-82
-57
-33
-13
-1
2
-5
-21
-44
-69
-93
-111
-121
-120
-109
-87
-58
-25
7
36
56
65
64
51
30
2
-29
-58
-82
-98
-105
-102
-90
-69
-45
-19
4
22
32
33
24
8
-13
-37
-59
-76
-85
-85
-76
-58
-35
-9
14
33
44
46
38
21
-1
-27
-51
-70
-81
-84
-76
-61
-39
-15
9
28
41
46
43
33
18
1
-16
-29
-38
-40
-37
-28
-15
1
17
33
47
57
64
65
62
54
42
26
9
-7
-21
-31
-35
-32
-24
-10
6
22
35
43
44
36
22
1
-21
-44
-63
-75
-79
-74
-62
-44
-23
-2
16
28
33
30
20
5
-13
-33
-50
-63
-69
-68
-60
-46
-27
-8
9
21
25
20
6
-15
-42
-69
-94
-112
-121
-119
-106
-84
-57
-29
-2
18
30
31
22
5
-18
-43
-67
-88
-101
-106
-102
-89
-70
-48
-24
-2
15
25
27
20
6
-14
-38
-62
-84
-100
-111
-114
-109
-99
-84
-68
-51
-38
-29
-24
-27
-34
-45
-59
-74
-87
-96
-100
-97
-87
-71
-52
-30
-8
8
19
20
12
-4
-28
-55
-82
-105
-121
-127
-122
-108
-85
-59
-32
-8
8
16
14
2
-16
-39
-62
-83
-98
-107
-108
-102
-91
-75
-57
-41
-27
-17
-13
-14
-21
-32
-46
-61
-74
-84
-89
-88
-81
-68
-51
-33
-15
-1
6
4
-6
-24
-48
-75
-99
-118
-127
-125
-113
-90
-62
-33
-6
11
18
12
-6
-33
-64
-96
-123
-141
-148
-143
-128
-106
-80
-54
-32
-15
-7
-5
-11
-21
-36
-52
