0
0
0
0
0
0
0
0
0
0
0
0
0
0
0
0
0
0
0
0
0
0
0
0
0
0
0
0
0
0
0
0
0
0
0
0
0
0
0
0
0
0
0
0
0
0
0
0
0
0
0
0
0
0
0
0
0
0
0
0
0
0
0
0
0
0
0
0
0
0
0
0
0
0
0
0
0
0
0
0
0
0
0
0
0
0
0
0
0
0
0
0
0
0
0
0
0
0
0
0
0
0
0
0
0
0
0
0
0
0
0
0
0
0
0
0
0
0
0
0
0
0
0
0
0
0
0
0
0
0
0
0
0
0
0
0
0
0
0
0
0
0
0
0
0
0
0
0
0
0
0
0
0
0
0
0
0
0
0
0
0
0
0
0
0
0
0
0
0
0
0
0
0
0
0
0
0
0
0
0
0
0
0
0
0
0
0
0
0
0
0
0
0
0
0
0
0
0
0
0
427
832
1170
558
724
1069
378
199
745
410
-149
230
131
-430
-66
101
-340
-239
221
-46
-422
-10
-60
-485
12
175
-528
-342
172
-260
-490
60
115
-377
-222
196
-197
-345
171
-181
-377
210
64
-446
-149
216
-437
-599
162
28
-446
-171
-51
-331
-166
76
-232
-494
44
62
-495
-40
138
-359
-276
102
-150
-351
46
-107
-520
-92
84
-432
-141
269
-181
-154
254
-96
-263
389
465
-221
-136
304
-55
-409
-130
-91
-357
-25
80
-459
-319
116
-284
-415
165
-62
-654
-232
150
-699
-832
394
1091
2086
3748
3698
1466
-198
-318
-351
-257
58
-146
-176
208
-97
-372
-13
63
-140
31
275
-39
-237
206
153
-286
106
263
-291
-92
448
-127
-278
508
237
-172
359
427
-143
226
632
-9
-24
562
293
-90
487
707
285
524
811
358
432
1051
828
469
773
947
645
876
1073
564
642
983
710
452
508
357
20
250
376
-244
-195
383
45
-413
-154
-3
-264
-196
35
-369
-434
80
-220
-606
57
108
-427
-153
14
-227
-247
-105
-68
-218
-173
-4
-352
-229
128
-357
-268
90
-325
-380
-23
-68
-431
-223
122
-276
-341
65
-87
-497
-200
130
-408
-231
214
-481
-498
126
-109
-629
-347
11
-253
-103
101
-251
-303
35
-179
-379
139
116
-306
-102
337
65
-326
208
182
-519
-117
109
-394
-160
99
-329
-434
78
-173
-596
-187
-75
-411
-283
47
-260
-430
-118
-450
-551
1096
2637
3232
3282
1503
-700
-718
23
-162
-276
80
79
-409
-243
248
-115
-314
239
137
-363
83
307
-273
-90
297
-64
-69
285
-62
-159
353
139
-233
178
418
48
89
565
265
-312
280
580
-27
210
723
294
115
752
680
340
748
681
279
708
1111
721
575
961
835
558
998
1041
413
608
948
362
126
436
106
-164
160
185
-256
-243
180
-126
-223
203
-149
-544
-2
185
-422
-248
214
-326
-402
221
-109
-406
47
78
-284
-87
59
-283
-223
105
-38
-320
-23
20
-510
-230
272
-142
-269
24
-220
-343
39
-45
-320
-63
49
-351
-322
173
-180
-589
-91
93
-365
-311
100
-226
-331
212
-123
-631
8
73
-523
-43
347
-162
-189
224
72
-90
296
243
-411
-288
22
-463
-411
41
-192
-483
-212
-96
-531
-530
-67
-310
-462
143
-274
-825
-253
374
1088
2334
3372
2395
115
-658
-442
-711
-212
-13
-591
-48
281
-446
-458
287
58
-387
87
-21
-492
-65
184
-237
-340
91
-18
-387
49
171
-291
-108
205
-263
-260
437
131
-318
133
305
-168
14
488
-11
33
603
163
-31
530
582
159
197
622
358
174
775
692
489
814
734
348
407
689
369
10
390
274
-417
0
62
-718
-217
263
-308
-404
-122
-306
-551
-136
-41
-557
-417
-178
-546
-482
-41
-259
-603
-298
-30
-390
-347
91
-321
-461
44
-245
-560
-108
-8
-493
-246
182
-357
-494
7
-160
-430
-14
53
-647
-411
277
-326
-489
190
-145
-574
-62
12
-505
-288
74
-364
-491
65
-231
-701
-67
51
-523
-62
336
-237
-289
163
-128
-384
16
-54
-374
-287
-227
-577
-578
-197
-532
-601
-144
-419
-812
-535
-152
-495
-620
-145
-443
-884
-509
-106
505
2082
3151
2470
969
-272
-916
-770
-196
-184
-563
-399
-43
-419
-578
-17
-170
-563
-285
-241
-525
-350
11
-300
-381
54
-172
-596
-200
78
-382
-210
99
-421
-394
275
-86
-452
146
22
-378
69
263
-208
-84
381
18
-157
445
457
-25
402
738
110
161
816
475
103
695
604
24
477
863
176
-77
414
152
-193
17
-70
-432
-242
91
-402
-648
-103
-216
-697
-101
54
-505
-103
-22
-581
-191
266
-138
-319
61
131
-228
-157
97
-214
-97
421
-121
-554
103
153
-380
-69
209
-261
-336
55
-240
-604
-93
-181
-594
-298
-226
-463
-416
-61
-335
-836
-423
-223
-688
-402
-116
-686
-841
-415
-438
-773
-414
-227
-613
-397
-106
-440
-493
-37
-296
-574
-39
-125
-760
-349
55
-775
-757
-98
-513
-716
-280
-373
-706
-414
-224
-691
-634
-306
-537
-641
-373
-622
-1004
339
2085
2655
3220
2494
73
-931
-213
-99
-659
-308
120
-435
-407
183
-318
-890
-236
28
-443
-295
-16
-320
-405
-39
-243
-558
-138
22
-336
-189
11
-344
-194
219
-277
-537
104
170
-359
58
447
-468
-454
478
330
42
299
393
169
355
699
304
261
976
636
133
1037
1188
430
758
1145
621
368
785
425
-132
478
512
-157
7
180
-273
-195
120
-15
-122
12
79
-262
-100
186
-189
-58
314
6
-163
232
308
-47
183
610
213
37
455
321
129
291
292
185
245
407
133
37
448
201
-78
356
351
-257
-12
346
-96
-91
292
-31
-497
37
136
-341
-55
44
-275
-245
57
-163
-428
-188
-344
-453
-84
-93
-452
-248
170
-294
-513
118
59
-432
-245
1
-285
-363
-133
-527
-754
-264
-370
-878
-594
-105
-465
-779
-296
-292
-793
-338
-110
-547
-457
-371
-507
329
2349
3526
3198
1920
33
-759
-338
11
-154
-238
97
-191
-386
144
85
-413
-133
292
-209
-354
284
54
-435
88
181
-394
63
660
149
42
516
261
69
402
485
214
406
616
338
500
705
444
334
734
858
390
557
1052
714
664
1086
783
583
1038
917
716
1128
1440
831
421
1180
977
329
562
554
23
-59
303
-129
-501
-10
-216
-832
-389
-267
-838
-586
-311
-720
-890
-483
-486
-779
-240
-143
-778
-398
27
-414
-470
36
-83
-657
-88
245
-543
-157
254
-332
-223
164
-85
-305
91
17
-474
-100
142
-379
-482
-106
-337
-533
-99
-191
-488
-323
-217
-400
-347
59
-136
-543
-125
272
-6
227
746
378
330
989
940
738
1201
1190
885
1240
1480
991
872
1323
1070
665
798
737
507
613
580
198
155
389
292
-18
201
298
-375
-143
363
-287
-606
-306
-90
818
2358
3552
3272
1393
-296
-1029
-713
-89
-362
-622
-353
-410
-726
-697
-532
-750
-738
-350
-481
-1083
-884
-432
-741
-630
-530
-985
-898
-509
-616
-994
-694
-428
-1002
-837
-427
-1082
-1080
-483
-787
-957
-625
-679
-959
-779
-600
-984
-886
-348
-497
-788
-352
-278
-616
-189
-12
-360
-271
90
54
-196
44
96
-235
-265
-206
-548
-601
-329
-615
-787
-411
-423
-915
-839
-409
-758
-797
-372
-777
-752
-303
-402
-668
-578
-247
-508
-734
-505
-571
-641
-184
-75
-580
-460
-146
-416
-480
-179
-282
-536
-219
-233
-643
-442
-317
-662
-554
-213
-467
-654
-313
-334
-701
-523
-334
-669
-919
-494
-525
-1075
-669
-521
-1022
-999
-1058
-1499
-1394
-967
-1218
-1510
-1204
-1174
-1390
-1286
-1116
-1158
-1363
-1199
-1025
-1345
-1269
-1143
-1575
-1496
-1157
-1653
-1815
-1377
-1624
-1782
-1335
-1242
-1606
-1417
-1039
-1341
-1295
-926
-1085
-1229
-962
-1064
-1473
-608
1131
2042
2776
2606
217
-1260
-707
-514
-865
-690
-137
-281
-487
-114
-164
-374
64
140
-180
173
424
59
224
763
563
406
822
856
585
963
1158
858
1077
1549
1257
992
1396
1374
1208
1663
1728
1081
1181
1670
1326
1066
1526
1487
1065
1472
1700
1110
1243
1677
1328
1090
1425
1580
1263
1151
1283
1039
850
1101
903
516
858
643
-53
383
590
-107
-96
257
-104
-332
66
49
-648
-509
-93
-466
-319
9
-376
-551
-106
-191
-681
-424
-220
-408
-324
-34
-254
-528
-102
-284
-893
-537
26
-307
-380
52
-310
-547
-163
-235
-492
-204
-23
-388
-398
10
-326
-649
-194
-158
-433
-179
74
-329
-419
42
-242
-532
-61
14
-392
-252
139
-301
-407
249
94
-185
238
220
-192
128
359
-92
-94
297
144
-508
-323
96
-314
-254
74
-324
-641
-283
-318
-662
-167
-27
-559
-372
-210
-792
-993
-235
671
1658
3315
3542
1191
-483
-585
-703
-558
-98
-448
-749
-65
-89
-590
-199
34
-408
-348
-33
-277
-401
26
44
-432
-246
-19
-358
-326
-58
-212
-294
243
181
-345
-14
223
-136
-75
310
29
-200
173
158
7
336
551
323
231
656
671
412
880
1067
456
638
1146
719
853
1382
1041
712
1152
1070
313
601
894
254
239
609
118
-221
226
218
-231
-50
227
-142
-190
110
-250
-475
117
151
-392
-122
55
-379
-341
-2
-88
-383
-42
79
-444
-148
204
-343
-527
-38
-127
-504
-154
8
-432
-168
46
-545
-354
110
-278
-423
114
-197
-726
-165
104
-434
-482
9
-172
-528
-55
29
-616
-255
263
-328
-480
167
35
-320
149
179
-129
118
223
-127
-66
257
-78
-320
-49
21
-279
-216
67
-243
-303
41
-173
-392
-51
5
-428
-279
129
-343
-588
109
779
1642
3216
3682
1677
-68
-221
-691
-417
542
52
-312
289
196
-254
-40
148
-163
-95
424
156
-255
336
339
-476
-33
473
-77
-17
452
70
-284
285
407
-78
290
571
-12
28
522
290
-7
440
573
46
266
693
155
310
876
472
558
861
561
427
846
1191
797
749
1154
894
557
864
907
336
473
855
85
-339
411
347
-113
298
363
-310
-153
413
-130
-270
371
-5
-331
219
38
-261
140
290
-117
-100
239
-24
-219
380
405
-404
-133
278
-70
-79
246
-88
-507
143
228
-346
-38
312
-312
-346
374
-66
-347
112
-109
-401
-232
33
-96
-385
-62
-93
-395
-54
30
-376
-185
184
-239
-311
220
-77
-405
147
48
-287
216
285
-281
-228
136
-169
-449
-72
41
-471
-428
51
-375
-551
-54
-273
-503
-51
-82
-531
-338
-302
-390
815
2346
2852
2662
1455
-327
-1057
-413
169
-237
-316
169
-313
-719
-15
169
-309
-91
253
-179
-194
219
-39
-325
116
43
-541
-97
316
-123
-460
45
272
-233
108
309
-135
124
363
-79
-144
329
265
-130
245
389
-105
335
703
144
258
925
542
196
839
730
267
613
928
593
570
933
523
124
556
563
-112
120
499
-111
-465
-134
-90
-319
-105
-150
-512
-231
-43
-504
-423
-62
-312
-503
-113
-27
-536
-490
-51
-254
-326
-40
-356
-531
-45
-46
-550
-326
18
-367
-410
11
-389
-649
-75
-135
-521
-233
32
-525
-524
156
-284
-664
-78
-67
-558
-256
-42
-594
-447
117
-234
-557
-102
-91
-686
-345
188
-327
-379
199
-50
-495
-94
84
-316
-133
125
-428
-715
-206
-218
-490
-158
-225
-626
-421
-189
-509
-556
-193
-234
-651
-575
-449
-465
812
2498
3063
2904
1482
-567
-1010
-157
-22
-406
-383
-227
-173
-233
-15
-182
-537
-135
63
-305
-230
-3
-378
-408
64
-192
-491
51
127
-393
-185
226
-154
-283
235
-5
-395
142
208
-216
32
278
-45
-63
431
235
-79
433
527
156
412
622
336
468
848
595
465
902
907
387
491
868
436
267
545
327
-150
10
230
-305
-213
132
-286
-461
-99
-224
-470
-52
-93
-646
-424
-162
-679
-440
51
-379
-538
-117
-167
-585
-292
32
-330
-469
-44
-244
-622
-197
-297
-662
-209
118
-435
-612
18
-193
-637
-146
-160
-626
-367
-39
-414
-538
-120
-387
-601
-266
-466
-691
-190
46
-498
-449
37
-373
-590
-37
-116
-572
-248
70
-333
-299
57
-343
-443
220
157
-404
-161
37
-499
-477
-2
-233
-638
-240
-77
-757
-474
182
-429
-635
-107
-477
-642
-228
-610
-692
878
2409
2987
3493
2372
-170
-852
-167
-111
-358
-163
147
-258
-692
-126
-73
-486
1
15
-344
-104
139
-310
-409
167
-133
-473
45
90
-359
-156
78
-421
-237
343
7
-297
130
349
-78
-44
298
-31
-39
508
265
-34
469
560
83
362
752
327
345
1112
718
117
923
1004
378
785
1007
418
386
637
382
63
314
173
-414
-219
-25
-284
-401
-81
-152
-430
-46
-70
-519
-305
16
-405
-531
-152
-329
-650
-276
24
-469
-402
42
-466
-560
132
-116
-664
-209
-9
-546
-360
108
-305
-627
-189
-315
-618
-113
-143
-756
-371
75
-493
-486
49
-268
-531
-223
-347
-625
-368
-137
-343
-502
-192
-258
-650
-202
-60
-504
-232
-34
-444
-371
82
-128
-479
124
73
-697
-89
264
-276
-276
-51
-313
-723
-385
-162
-631
-342
-54
-626
-510
-124
-451
-610
-137
-18
-748
-825
-212
103
1345
3289
3831
2354
327
-508
-718
-356
166
-409
-482
77
-221
-464
-24
-19
-522
-366
126
-270
-407
179
-33
-363
24
64
-342
-197
72
-198
-174
272
80
-305
-7
166
-77
64
351
-40
-136
506
126
-466
347
671
75
378
809
193
151
926
721
405
855
825
351
679
1108
526
471
989
614
244
394
375
96
95
257
-53
-267
44
-129
-415
-179
-160
-467
-256
-56
-398
-268
-510
-718
-356
-11
60
-422
-293
109
-295
-463
-49
-278
-501
-19
-117
-522
-372
-134
-233
-432
-180
-261
-728
-138
191
-446
-279
48
-415
-479
52
-286
-795
-48
17
-725
-316
-229
-651
-343
31
-167
-480
-126
-61
-498
-308
-29
-367
-530
-20
-149
-709
52
318
-528
-153
407
-157
-325
140
-112
-397
-3
-130
-604
-330
28
-407
-590
-80
-226
-644
-224
-77
-569
-380
119
-477
-739
-298
-427
364
2167
3486
3389
1817
124
-871
-632
99
-93
-394
98
-67
-644
-90
218
-257
-255
139
-19
-367
-103
-9
-313
-82
91
-241
-261
189
67
-481
115
383
-449
-76
511
-3
-102
348
189
-199
202
430
-38
94
597
330
120
620
606
186
546
791
306
460
986
699
662
1105
910
572
914
950
333
427
809
260
-129
276
-2
-345
164
59
-476
-289
127
-154
-365
-14
-239
-577
-85
25
-661
-394
186
-451
-672
44
-46
-515
-120
8
-331
-177
47
-387
-625
90
-55
-561
57
24
-533
-163
124
-462
-566
126
-99
-615
-38
-17
-740
-258
223
-284
-420
-103
-235
-537
-37
31
-554
-170
213
-386
-543
-40
-109
-406
-176
-103
-521
-345
232
-153
-248
528
173
-431
145
322
-250
-49
103
-534
-349
150
-213
-485
-288
-298
-536
-345
81
-211
-381
77
-272
-642
-199
-286
-605
677
2516
3199
3252
1969
-248
-899
-103
174
-338
-213
255
-253
-426
186
-75
-500
53
158
-567
-321
315
-238
-395
257
31
-273
101
133
-161
22
297
-94
-196
345
127
-253
110
179
-121
14
298
132
150
552
289
75
669
618
141
440
789
488
357
978
876
319
717
922
660
829
996
495
314
858
536
-68
390
453
-129
-101
70
-324
-367
177
-88
-624
-46
153
-504
-331
43
-316
-474
-180
-208
-365
-81
21
-431
-282
110
-281
-416
-110
-148
-401
-251
-85
-403
-307
48
-275
-427
14
-93
-459
-124
-2
-448
-456
-125
-363
-487
43
-151
-649
-239
-46
-531
-370
-59
-437
-462
17
-191
-585
-180
-37
-500
-388
-4
-376
-459
50
-120
-395
70
238
-296
-179
246
-224
-367
86
-368
-705
-69
-30
-581
-339
-91
-510
-474
-150
-435
-604
-268
-280
-602
-457
-278
-451
409
2093
3205
3338
2035
41
-1004
-646
30
-300
-552
-10
-126
-433
17
79
-464
-392
99
-71
-335
46
-123
-266
95
-202
-513
-125
294
-65
-300
200
163
-182
185
152
-225
85
233
-160
-105
456
289
-82
408
478
19
198
478
309
324
717
673
392
708
861
468
606
1028
706
405
864
775
350
586
531
77
189
402
-43
-253
116
-61
-463
-120
92
-478
-515
-7
-345
-455
-40
-436
-566
-28
-79
-373
-186
71
-245
-410
6
-56
-528
-238
95
-449
-350
33
-462
-471
11
-240
-506
24
88
-449
-272
23
-403
-532
-68
-137
-424
-186
-96
-475
-453
-11
-287
-475
0
-226
-696
-133
146
-543
-405
246
-124
-508
51
122
-323
90
223
-303
-152
279
-85
-378
-53
-241
-619
-210
-84
-559
-331
54
-339
-630
-123
-118
-684
-172
111
-572
-472
-25
326
1454
3043
3368
1759
-113
-755
-584
-414
-14
35
-222
73
-27
-420
32
129
-390
-54
333
-144
-315
169
64
-341
72
265
-356
-184
417
-56
-412
181
301
-119
78
284
-9
101
401
74
-48
505
376
-60
473
629
108
400
556
237
494
825
555
303
725
826
545
790
1053
729
527
888
725
201
450
507
-62
-58
435
-2
-498
182
-47
-510
179
35
-517
-197
151
-230
-360
194
-83
-633
-90
48
-566
-289
171
-274
-262
248
-83
-482
-97
94
-283
-157
94
-352
-440
152
23
-381
-35
-122
-491
-119
202
-245
-416
68
-133
-565
-80
93
-466
-346
12
-294
-294
40
-157
-454
-95
199
-274
-235
282
-71
-374
140
113
-348
-27
241
-305
-335
107
-275
-601
-207
-176
-449
-173
5
-479
-525
26
-181
-470
-206
-321
-622
-73
970
1484
2468
2988
1096
-650
-583
-413
-495
-187
-27
-480
-352
239
-97
-371
85
6
-278
82
107
-314
-298
34
-51
-160
243
2
-346
6
9
-288
-90
354
11
-183
321
222
-148
78
290
52
44
220
-35
-5
583
273
-20
651
579
177
511
805
506
348
832
812
373
723
923
300
382
841
202
-90
370
147
-159
88
123
-254
-208
78
-286
-439
59
-103
-520
-165
-5
-363
-406
-179
-260
-327
79
-91
-566
-100
108
-447
-414
39
-250
-392
73
-265
-601
67
201
-442
-329
86
-286
-329
141
-76
-459
-56
-88
-658
-208
112
-449
-497
68
-149
-472
-33
-56
-412
-207
152
-269
-461
12
-111
-436
21
176
-370
-117
382
-109
-194
302
-39
-402
-71
79
-387
-441
1
-309
-664
-121
-64
-471
-202
-159
-514
-133
91
-555
-593
428
1221
1627
2819
2953
553
-867
-297
-450
-765
23
81
-356
28
170
-381
-299
180
-199
-305
179
56
-297
-91
26
-286
-207
267
27
-337
28
25
-206
188
237
-222
53
385
-96
-237
308
335
-28
269
407
22
145
546
289
113
740
642
188
703
864
459
641
930
584
514
982
761
359
629
741
310
244
422
-136
-337
239
161
-345
-38
128
-438
-340
22
-238
-366
29
-126
-465
-139
-209
-462
-238
-35
-259
-439
-110
-277
-732
-174
141
-444
-364
11
-289
-420
83
-39
-474
-218
-201
-554
-397
37
-290
-399
134
-237
-655
-114
11
-480
-378
-56
-278
-360
18
-281
-742
-180
-43
-536
-216
175
-397
-617
20
5
-351
18
8
-336
-70
163
-140
-299
131
57
-475
-300
15
-341
-365
-64
-390
-505
-61
-157
-641
-275
-11
-587
-518
-34
-508
-735
156
1057
1737
2938
3433
1289
-572
-324
-439
-633
2
-70
-353
-59
-146
-336
-175
138
-199
-453
53
-26
-360
-93
79
-279
-307
-3
-89
-263
-8
106
-291
-3
312
-258
-170
288
26
-242
109
207
-106
99
254
-25
214
538
74
74
798
694
202
690
961
367
470
999
633
434
967
832
289
534
700
217
286
569
181
-123
231
178
-489
-314
98
-285
-311
119
-199
-648
-220
-145
-485
-102
109
-490
-285
131
-600
-606
72
-146
-516
-102
77
-618
-455
220
-360
-543
-29
-204
-245
-41
-139
-483
-400
15
-281
-513
-1
-212
-846
-122
212
-501
-397
97
-298
-614
-87
-154
-568
-206
-27
-420
-315
-276
-458
-324
11
-49
-548
-123
116
-562
-345
256
-89
-278
265
141
-431
-145
37
-549
-388
158
-313
-543
-151
-468
-674
-51
-11
-583
-357
14
-608
-638
93
-313
-926
-52
1298
1957
3100
3511
1167
-743
-281
-194
-502
-19
-110
-510
-241
45
-373
-559
-65
-128
-398
-97
51
-330
-304
157
-230
-677
-95
36
-306
-25
152
-335
-308
203
-166
-348
286
142
-257
87
68
-199
-12
350
283
35
292
389
21
197
587
325
417
908
534
312
974
845
390
719
947
448
249
751
415
-89
235
82
-361
63
221
-383
-270
7
-434
-490
-48
-141
-488
-312
-177
-624
-530
-173
-545
-522
-74
-234
-710
-378
56
-476
-413
-11
-489
-635
-16
-121
-696
-288
-39
-562
-416
-120
-542
-485
-71
-140
-507
-525
-292
-433
-384
-173
-409
-447
-31
-297
-745
-278
-105
-583
-549
-145
-277
-485
-178
-343
-684
-248
-60
-586
-454
-200
-612
-427
135
-59
-452
-74
104
-462
-294
216
-189
-336
-73
-453
-789
-322
-145
-685
-577
-146
-584
-778
-277
-268
-555
-309
-191
-568
-616
-422
-678
-271
1685
2873
3146
2850
803
-949
-743
-129
-353
-523
-77
-112
-645
-399
-20
-344
-402
-57
-236
-571
-146
-92
-548
-180
-11
-737
-461
350
-215
-424
178
-192
-525
-69
55
-353
-215
235
-80
-385
-8
115
-157
245
354
-352
-66
477
26
-68
555
599
219
461
696
353
459
876
373
195
910
631
86
498
597
-36
-113
129
-217
-364
-102
-229
-568
-294
-258
-708
-609
-312
-528
-840
-290
-311
-910
-416
-224
-746
-509
-173
-546
-676
-304
-326
-751
-441
-219
-891
-698
-259
-768
-684
-111
-327
-736
-519
-419
-793
-629
-138
-558
-903
-382
-408
-957
-629
-285
-776
-639
-296
-749
-821
-371
-459
-795
-541
-368
-736
-668
-375
-640
-905
-550
-427
-937
-620
-162
-601
-505
-178
-587
-767
-287
-176
-564
-318
-47
-658
-671
-164
-581
-887
-432
-464
-899
-606
-469
-959
-879
-589
-753
-780
-455
-446
-954
-1073
-624
-909
-219
1906
2623
2979
2575
35
-1356
-626
-295
-744
-679
-273
-578
-830
-280
-350
-992
-592
-149
-602
-647
-247
-544
-640
-106
-433
-846
-293
-150
-714
-552
-88
-500
-701
-196
-177
-523
-220
-12
-605
-441
187
-154
-399
53
8
-527
-47
422
-57
-8
279
200
92
307
467
121
399
748
180
133
726
505
-86
287
390
-196
-196
-159
-410
-424
-101
-401
-1017
-341
-101
-805
-501
-313
-872
-642
-314
-877
-852
-168
-293
-894
-612
-206
-668
-686
-181
-488
-840
-368
-357
-785
-409
-231
-821
-541
-213
-795
-615
-98
-424
-694
-315
-292
-848
-630
-135
-508
-740
-380
-420
-790
-552
-170
-556
-886
-259
-199
-632
-188
-356
-845
-391
-223
-604
-497
-227
-466
-605
-276
-260
-494
-83
121
-467
-442
19
-383
-431
165
-26
-552
-311
-143
-751
-814
-247
-299
-495
-319
-520
-765
-342
-232
-784
-575
-147
-538
-799
-562
-55
891
2463
3800
2991
765
-306
-636
-617
-56
-194
-628
-356
-128
-427
-250
76
-561
-639
27
-68
-350
-63
197
-332
-512
55
-75
-432
30
1
-421
14
99
-348
-154
305
-42
-352
214
202
-208
122
381
30
4
480
265
11
540
576
207
505
823
429
437
918
699
529
818
720
407
695
984
472
207
584
322
-254
166
266
-262
-25
157
-356
-408
24
-214
-502
-67
-8
-741
-502
148
-484
-539
186
-215
-661
-57
18
-466
-195
157
-215
-507
-83
-71
-413
39
-7
-501
-190
-38
-451
-363
6
-139
-348
-24
-18
-600
-253
146
-371
-336
125
-153
-634
-304
-3
-342
-140
52
-511
-465
102
-54
-379
-100
-91
-546
-467
-21
28
-71
175
-18
-197
352
192
-319
24
298
-124
-216
-32
-342
-451
-43
-62
-435
-288
-95
-315
-283
78
-139
-454
-28
23
-605
-528
-85
301
1634
3277
3667
2103
382
-404
-774
-39
262
-332
-147
131
-114
-142
139
137
-162
2
191
-139
-81
305
78
-197
255
289
-239
38
269
-114
-61
298
136
-37
512
326
-154
398
585
147
216
565
356
184
662
632
-28
432
859
427
668
849
523
528
1009
931
618
1023
974
672
919
1049
725
537
724
570
131
267
507
69
-168
206
63
-312
59
90
-395
-140
191
-318
-304
300
-58
-233
140
-170
-436
-42
215
-186
-183
325
-134
-540
74
126
-309
-34
267
-59
-258
5
-111
-371
146
151
-312
-114
73
-248
-222
230
-184
-413
137
76
-347
-53
198
-387
-485
95
-43
-262
67
-162
-379
40
164
-227
-165
268
-29
-297
141
176
-96
349
486
-180
-107
350
-82
-381
88
30
-425
-57
34
-440
-278
96
-169
-432
161
91
-513
-115
11
-534
-50
1441
2224
2888
3166
1253
-627
-406
108
-433
-427
499
97
-423
326
272
-155
169
226
-157
-1
374
29
-246
272
362
-189
-23
439
94
-29
330
85
-36
501
436
-50
374
631
74
185
681
331
18
452
576
256
454
679
452
366
823
769
363
1011
1137
487
846
1247
710
763
1290
732
395
1030
804
132
530
707
-89
-110
465
98
-133
295
91
-235
108
-31
-447
-20
384
-27
-314
135
98
-358
-65
270
-242
-216
318
-79
-364
137
246
-158
23
412
-217
-625
62
111
-156
125
139
-148
10
180
-279
-211
238
-120
-326
40
-73
-333
-34
108
-265
-186
246
-12
-341
17
38
-533
-156
377
-126
-134
349
25
-218
264
297
-103
44
336
25
-101
326
72
-374
55
98
-414
-99
220
-341
-281
309
-164
-476
50
-150
-446
65
-106
-868
-378
702
1483
2425
3510
2988
580
-552
-247
-420
-140
343
-70
-403
75
277
-149
-24
219
-54
-25
269
29
-142
345
134
-421
238
472
-244
-49
513
168
-257
214
407
-46
272
569
55
62
512
180
17
605
630
203
341
666
260
229
956
790
431
925
914
458
866
946
585
936
1313
903
498
845
842
382
440
602
232
44
379
93
-141
322
152
-267
3
116
-218
-99
266
-78
-398
-20
73
-245
-113
205
-123
-250
146
-57
-226
206
65
-264
-76
133
-84
-126
186
4
-291
36
127
-359
13
290
-244
-102
150
-128
-240
59
108
-328
-164
148
-263
-152
257
-140
-240
176
-12
-370
-3
270
-166
-148
290
24
-282
141
179
-157
224
526
73
-24
370
211
-30
171
128
-356
-227
272
-119
-384
17
-169
-375
185
149
-361
-80
219
-173
-426
-182
-105
647
2397
3520
3427
2193
383
-622
-322
325
150
-181
324
147
-513
131
469
-174
18
384
-4
-29
291
235
-132
63
324
-116
-46
390
201
-64
384
432
-70
325
584
-45
144
625
219
106
537
473
9
311
822
419
419
897
511
411
983
957
583
863
1249
794
757
1341
931
567
1093
977
493
704
985
378
129
748
256
-292
321
275
-157
247
309
-298
-301
89
-69
-195
253
260
-356
-162
277
-215
-210
273
-56
-357
226
313
-302
-34
267
-219
-128
294
-133
-450
180
267
-268
3
245
-256
-193
231
-63
-304
-52
63
-291
-163
197
-219
-261
142
-170
-411
79
82
-341
-13
249
-142
-276
-2
-111
-400
51
248
-324
-130
297
-75
-68
408
89
-187
354
315
-123
133
202
-269
-193
82
-275
-500
-63
28
-357
-153
105
-294
-336
129
-96
-465
15
-205
-825
337
2029
2687
3635
3424
696
-754
-172
68
-295
-76
306
-243
-238
311
-48
-325
148
86
-313
73
262
-199
-106
307
-19
-273
90
87
-185
82
344
-174
-211
539
226
-346
333
350
-159
346
471
47
200
365
212
303
620
505
-58
385
1029
626
601
972
610
447
983
1026
670
868
1045
633
492
659
347
146
458
361
-29
214
419
-152
-297
100
-9
-281
-239
-323
-385
-135
14
-187
-269
88
-62
-501
-128
48
-390
-108
164
-344
-271
174
-300
-614
36
62
-496
-167
134
-498
-375
170
-148
-270
58
-46
-459
-225
-55
-430
-338
64
-261
-666
-60
50
-447
-124
83
-394
-339
90
-195
-447
-212
-222
-447
-226
42
-225
-300
-69
-142
-251
181
209
-311
74
357
-305
-206
264
-137
-350
6
-83
-431
-189
-20
-525
-513
-53
-117
-378
-272
-92
-457
-217
150
-580
-711
-11
677
1743
3314
3954
1955
-199
-407
-387
-435
52
-16
-397
14
75
-283
-26
232
-197
-308
185
-137
-600
52
293
-312
-78
193
-209
-133
257
159
-65
208
236
-172
-9
307
-126
-61
522
175
-48
409
302
-46
257
552
295
354
689
445
342
721
733
485
697
839
478
677
1222
854
366
851
911
161
385
713
133
22
319
38
-295
25
31
-444
-194
47
-458
-422
136
-220
-587
-88
-157
-590
-234
133
-248
-429
25
-77
-562
-160
14
-439
-238
-32
-353
-311
167
-156
-644
-244
-226
-371
-11
158
-264
-536
-174
-95
-533
-281
3
-517
-303
31
-403
-532
-204
-246
-570
-181
20
-466
-319
2
-356
-565
6
-178
-693
-15
12
-593
-285
31
-298
-287
253
-132
-503
315
284
-350
-127
213
-135
-584
-253
-185
-534
-170
-11
-430
-353
-101
-386
-550
-214
-253
-580
-172
-215
-920
-414
824
1785
3037
3864
2191
-221
-515
-166
-386
-90
208
-439
-502
118
-223
-514
58
-36
-467
44
245
-238
-227
156
85
-353
-117
171
-283
-169
267
-108
-205
312
32
-280
286
192
-175
218
404
-45
-75
376
265
91
500
495
16
356
843
406
371
928
708
351
738
833
406
828
1036
556
507
575
489
201
412
583
28
4
176
-239
-366
94
-51
-429
-119
-111
-502
-342
-80
-591
-497
112
-231
-418
-7
-20
-442
-368
30
-267
-422
-61
-177
-468
-136
48
-472
-326
77
-420
-458
76
-271
-567
-37
59
-437
-283
5
-401
-391
100
-276
-647
-172
-81
-558
-248
100
-573
-492
52
-344
-536
67
38
-517
-268
68
-343
-346
128
-155
-464
15
208
-294
-208
300
-64
-335
111
6
-450
-225
-83
-494
-335
29
-375
-499
-54
-237
-508
-105
-122
-542
-246
6
-688
-944
-259
309
1352
3125
3835
2253
276
-325
-620
-500
171
-39
-465
-41
191
-444
-459
222
30
-279
51
-121
-564
-18
253
-257
-19
247
-157
-146
242
43
-248
5
147
-87
131
489
31
-146
267
182
-101
254
462
14
236
636
233
296
786
457
235
816
895
384
613
1077
661
540
1122
891
305
807
843
141
382
724
265
62
357
-18
-316
100
63
-353
-160
14
-344
-262
7
-288
-549
-90
1
-570
-187
274
-293
-405
115
-176
-510
-60
36
-288
-187
105
-176
-278
111
-129
-505
-84
87
-517
-351
222
-373
-593
98
-79
-504
-48
54
-430
-270
5
-361
-274
211
-286
-655
-147
-59
-409
-216
12
-376
-396
122
-102
-496
36
144
-319
-138
291
39
-177
346
179
-289
106
56
-577
-290
176
-350
-400
14
-316
-552
-171
-30
-352
-232
73
-293
-360
40
-428
-625
739
1971
2586
3356
2303
-212
-867
-396
-386
-276
105
152
-183
-225
97
-85
-251
283
44
-384
127
194
-344
-51
274
-146
-132
274
30
-414
76
356
-131
75
460
64
-41
467
230
-232
319
542
-13
203
719
210
13
573
456
167
522
656
355
681
1002
603
576
1059
837
442
927
1020
386
430
707
311
224
514
145
-186
151
163
-353
-187
183
-222
-304
15
-165
-397
-213
-126
-393
-307
19
-190
-292
18
-129
-361
-7
47
-473
-332
159
-197
-512
14
3
-514
-39
198
-469
-273
129
-311
-401
-60
-147
-371
-130
4
-445
-321
196
-390
-514
92
-271
-486
57
58
-466
-300
80
-376
-629
-57
8
-568
-324
146
-206
-17
240
-182
-122
286
72
-297
37
-13
-685
-493
54
-262
-416
70
-203
-734
-219
-80
-587
-278
91
-405
-559
-196
-401
-708
179
1336
1903
2931
2811
462
-905
-550
-399
-391
-26
20
-397
-175
59
-489
-465
122
-48
-378
156
229
-343
-144
136
-164
-294
138
170
-318
22
290
-248
-13
264
-335
-191
350
-4
-239
197
291
32
262
468
48
-34
419
372
44
502
580
78
600
966
461
427
865
711
416
870
873
389
622
675
190
150
454
156
-202
31
80
-388
-203
176
-397
-430
74
-395
-758
11
53
-533
-286
7
-398
-513
67
-82
-581
-138
-20
-485
-238
-159
-457
-382
-35
-134
-631
-259
-32
-357
-157
-35
-367
-442
5
-191
-723
-186
34
-498
-330
-60
-387
-523
-233
-290
-558
-165
11
-509
-516
-200
-348
-530
-198
-46
-371
-163
-86
-468
-1
290
-193
-216
183
-89
-570
-76
160
-508
-392
-20
-586
-565
-61
-285
-510
-134
-116
-663
-533
-74
-335
-479
10
-322
-1126
-368
1023
1805
2834
3242
1317
-748
-538
-460
-743
66
149
-377
-205
60
-146
-582
-454
-36
-262
-25
155
-381
-212
-3
-443
-369
235
67
-376
102
216
-541
-270
327
-173
-272
336
99
-393
-26
304
-64
-62
502
200
-89
500
455
49
436
628
198
399
851
563
195
451
712
545
800
1082
523
460
840
240
-91
487
253
-311
104
139
-479
-363
-6
-327
-407
130
-157
-645
-153
-147
-631
-245
84
-385
-430
-103
-325
-570
-243
-132
-408
-326
-72
-241
-443
-139
-159
-573
-201
64
-421
-361
-115
-363
-381
-78
-322
-619
-143
-35
-548
-328
-7
-413
-502
-48
-148
-622
-182
-22
-781
-420
149
-542
-569
93
-146
-513
-266
-251
-604
-249
186
-235
-356
238
115
-409
-12
121
-417
-239
162
-407
-754
-115
-265
-689
-139
23
-595
-445
34
-414
-618
-156
-230
-642
-333
-344
-677
508
2122
2738
3164
2298
-75
-879
-207
-60
-423
-143
74
-482
-429
72
-137
-456
14
-97
-632
-215
266
-238
-435
163
-127
-597
-77
254
-167
-285
97
-134
-242
229
-92
-383
165
316
-74
19
240
-117
-94
431
298
-65
323
602
165
240
602
322
381
892
784
407
790
1027
455
630
1039
444
238
780
484
-24
272
-11
-409
-21
134
-233
-388
-7
-91
-569
-210
17
-598
-420
34
-401
-511
-73
-181
-625
-262
41
-667
-574
133
-278
-601
-15
-149
-851
-298
196
-297
-270
58
-379
-672
-142
-104
-530
-234
-56
-601
-419
41
-387
-497
47
-196
-764
-352
-36
-498
-334
93
-478
-600
-59
-242
-527
-199
-137
-475
-298
-70
-375
-375
-72
-132
-294
-36
152
-320
-90
213
-398
-310
137
-133
-429
-176
-120
-554
-513
-87
-332
-563
-114
-241
-635
-225
-155
-600
-401
-167
-568
-784
-38
1012
1939
3424
3814
1467
-532
-315
-453
-588
201
-116
-595
-179
-56
-429
-362
94
-272
-356
72
-245
-391
-5
91
-300
-150
307
-248
-585
41
124
-315
70
236
-315
-52
253
-166
-134
418
181
-231
294
412
-52
134
531
293
109
547
569
303
736
810
313
673
1092
635
605
927
793
426
619
931
324
225
647
129
-172
155
-6
-263
-4
119
-363
-367
-6
-322
-488
-25
-153
-631
-197
-12
-539
-344
29
-323
-466
-3
-167
-513
-14
81
-405
-354
-118
-297
-400
-59
-24
-520
-226
95
-527
-448
18
-265
-363
-14
-120
-536
-302
108
-479
-622
-19
-296
-507
-92
-148
-473
-137
-63
-500
-372
-24
-281
-477
-130
-341
-698
-128
236
-465
-364
348
-220
-545
126
133
-246
34
206
-240
-345
17
-371
-719
-167
-101
-442
-295
-145
-470
-514
-32
-325
-722
-150
-131
-599
-473
-487
-769
247
2135
2947
3367
2696
291
-913
-299
-100
-601
-299
176
-255
-470
-7
-52
-496
-165
13
-342
-299
-25
-212
-395
24
26
-275
-110
-37
-308
-182
208
-77
-318
139
97
-315
148
228
-316
36
386
34
-166
224
337
-100
258
622
211
294
659
403
178
761
905
406
734
964
597
750
872
489
364
641
478
86
201
192
-192
-198
44
-296
-450
25
-145
-586
-208
36
-458
-505
-114
-370
-488
-90
-171
-552
-394
-129
-401
-368
17
-413
-682
-67
-119
-572
-218
21
-586
-647
1
-212
-550
-49
-39
-521
-328
-114
-540
-466
-164
-444
-421
-127
-317
-637
-320
-99
-502
-459
-82
-300
-710
-337
-80
-541
-343
-37
-460
-416
-60
-378
-544
-105
-288
-741
-208
151
-305
-279
247
-36
-459
50
36
-467
-235
-153
-505
-380
-51
-438
-715
-191
-213
-673
-304
-176
-753
-676
-127
-241
-585
-423
-559
-263
1466
2930
3349
2703
799
-755
-636
-174
-412
-436
-147
-156
-379
-298
-15
-320
-426
75
-214
-576
16
105
-514
-334
160
-252
-467
80
30
-425
-195
101
-132
-286
74
-18
-300
217
99
-234
160
255
-97
-113
348
73
-174
560
476
93
584
617
164
338
905
661
261
901
957
407
718
804
377
376
563
223
-162
275
80
-524
21
88
-653
-534
-7
-254
-644
-202
-71
-728
-396
-11
-645
-495
-28
-549
-719
-124
-232
-636
-210
87
-422
-595
3
-277
-757
-156
-267
-641
-140
-49
-522
-449
-35
-262
-612
-202
-189
-619
-421
-243
-547
-507
-41
-465
-707
-9
-146
-751
-406
2
-472
-584
14
-221
-702
-121
-217
-762
-251
-59
-594
-552
12
-218
-484
120
-4
-492
-94
218
-37
-136
115
-117
-400
-70
-214
-633
-185
0
-600
-452
-212
-574
-509
-22
59
-570
-353
-4
-510
-569
-436
-376
500
2177
3397
3257
1602
-67
-665
-390
13
-209
-467
-109
-6
-438
-56
193
-368
-223
263
-168
-484
146
206
-284
77
173
-362
5
307
-231
-349
233
217
-296
53
370
-5
-61
338
240
-44
331
358
-103
196
608
305
322
661
511
314
491
626
451
614
764
565
801
1064
679
609
1118
796
216
655
734
105
230
555
70
-304
117
41
-426
-173
150
-299
-460
-54
-262
-280
-44
-212
-400
-157
76
-315
-313
92
-124
-367
-17
-60
-546
-125
293
-255
-359
27
-84
-351
-21
37
-625
-236
189
-434
-283
56
-167
-343
-49
93
-413
-142
103
-335
-241
29
-193
-329
-135
-199
-245
-68
-169
-366
-181
-32
-327
-294
82
136
-179
32
317
-156
-62
380
139
-104
105
58
-325
-168
55
-363
-326
111
-127
-445
-153
-48
-291
-98
14
-386
-267
115
-366
-756
-198
636
1493
2848
3756
2205
-70
-432
-383
-502
102
144
-425
-202
227
-72
-144
310
71
-342
115
314
-211
-15
389
-130
-235
401
200
-236
313
309
-354
109
552
-153
-37
662
176
-50
519
243
-139
409
541
134
249
657
564
298
607
692
244
573
1012
537
551
1106
879
417
941
1054
559
900
889
327
382
662
293
-5
401
222
-323
46
258
-258
-222
232
-170
-618
87
177
-361
-198
0
-270
-284
234
15
-365
72
101
-426
-68
322
-312
-371
227
-91
-371
173
97
-422
-31
133
-363
-166
301
-52
-413
166
57
-488
-31
54
-548
-362
304
56
-347
95
113
-378
-133
119
-275
-357
50
-98
-356
87
191
-276
-250
201
17
-141
420
281
-169
210
199
-334
-176
115
-246
-291
162
-134
-466
-67
-37
-366
-185
124
-296
-543
68
18
-640
-223
630
1356
2762
3373
1588
-371
-446
-294
-441
10
128
-309
-198
259
-112
-407
157
28
-234
164
174
-234
-99
298
-120
-148
298
-68
-214
343
259
-150
125
166
-133
56
443
225
-194
199
467
-150
-28
683
200
14
708
538
184
499
557
349
550
774
537
518
961
660
392
900
831
500
775
909
459
268
412
193
23
328
248
-259
-42
116
-485
-366
195
-56
-359
-133
-2
-397
-264
188
-287
-366
71
-210
-449
8
89
-290
-101
-5
-376
-202
138
-62
-220
-111
-71
-285
-231
115
-129
-373
-30
-214
-495
71
62
-443
-42
246
-346
-430
151
-104
-585
15
64
-553
-427
16
-85
-479
-54
-39
-409
110
155
-309
-169
126
-114
-276
143
136
-39
233
213
-187
-107
225
-267
-416
102
-82
-487
-93
154
-475
-397
52
-450
-403
219
-129
-551
-185
-204
-656
163
1795
2548
3058
2651
397
-898
-228
10
-423
-80
236
-290
-443
74
-57
-340
108
84
-279
-90
117
-144
-152
265
25
-244
91
157
-284
-37
534
-18
-220
337
159
-239
-6
170
88
297
474
184
60
362
280
-7
400
720
287
402
937
577
401
849
634
484
841
816
518
808
1031
504
455
834
640
166
307
404
-35
84
274
-195
-310
-8
-162
-381
-8
55
-565
-478
49
-257
-435
10
-118
-471
15
80
-527
-336
-3
-286
-362
-27
-117
-466
-149
132
-387
-368
111
-211
-469
25
-46
-556
-256
-78
-340
-164
-12
-350
-399
-137
-202
-339
-147
38
-365
-441
36
-224
-499
-138
-151
-417
-203
-53
-353
-377
-131
-305
-405
60
-49
-389
122
240
-315
-76
321
-145
-295
190
64
-376
-211
-171
-482
-325
69
-295
-568
34
-170
-822
-306
-30
-469
-200
96
-399
-718
-209
513
1540
3119
3659
1963
-14
-364
-431
-455
114
-188
-514
44
-92
-510
-111
271
-136
-380
30
-26
-394
-64
196
-366
-431
109
-44
-195
197
-19
-455
241
333
-409
9
452
-15
-220
134
168
-80
201
319
-110
100
542
337
211
610
674
194
273
716
538
531
940
736
616
981
785
512
857
794
228
273
516
159
-183
280
101
-701
-139
136
-422
-225
54
-307
-481
-72
-201
-586
-154
65
-435
-458
-149
-385
-560
-162
-159
-493
-88
112
-397
-418
-65
-278
-390
18
-157
-570
-273
-176
-465
-183
-42
-371
-445
-80
18
-567
-390
86
-437
-419
72
-457
-604
-67
-284
-541
-211
-116
-491
-336
45
-269
-402
-7
-174
-548
-177
-71
-498
-497
-20
-23
-288
94
98
-385
-88
169
-188
-28
114
-218
-223
-37
-322
-639
-156
35
-543
-372
39
-355
-549
-151
-219
-624
-233
-16
-583
-526
-349
-462
635
2444
3365
3288
2030
117
-793
-498
180
-79
-672
28
73
-635
-32
203
-390
-158
107
-465
-356
173
-50
-234
-49
173
-178
-513
27
100
-247
153
200
-220
27
197
-171
-88
382
170
-62
351
301
-87
114
356
22
239
796
457
283
660
490
284
725
1026
626
539
939
636
634
1112
604
167
621
706
140
27
410
17
-265
287
-75
-495
-6
-56
-454
-331
83
-228
-651
-88
-14
-568
-296
-50
-547
-392
208
-200
-523
16
-99
-518
-260
-121
-393
-261
143
-393
-766
108
50
-750
-161
241
-452
-327
93
-346
-399
-144
-313
-453
-233
-43
-441
-369
73
-326
-571
-17
-145
-684
-233
0
-435
-414
6
-173
-514
-109
-55
-400
-161
49
-315
-349
88
-258
-367
334
-1
-380
125
175
-237
-201
201
-70
-408
-63
-188
-615
-293
-59
-490
-435
-41
-374
-642
-229
-62
-382
-369
-179
-736
-801
901
2320
3083
3818
2238
-288
-647
-146
-308
-282
138
-89
-407
16
-9
-477
-89
76
-371
-171
187
-131
-451
-58
28
-248
-25
106
-157
-183
225
23
-261
280
206
-328
114
455
-212
-215
448
167
-97
352
355
-5
432
770
194
268
738
443
254
788
975
490
574
879
623
741
1179
764
482
921
655
167
369
555
53
-158
326
-22
-445
-1
-26
-508
-236
151
-341
-480
-9
-211
-380
28
-61
-725
-462
287
-332
-554
90
-220
-538
-19
106
-444
-183
95
-596
-480
59
-190
-437
-155
53
-452
-305
130
-423
-432
172
-289
-646
-30
-214
-625
-162
77
-477
-345
176
-353
-567
-59
-203
-553
-203
-41
-426
-255
19
-480
-445
114
-238
-532
-159
44
-240
-310
233
95
-227
183
252
-216
-201
147
-115
-253
-64
-227
-338
-192
-250
-635
-351
119
-352
-445
-10
-373
-736
-98
74
-670
-657
-294
-19
1281
3048
3836
2865
930
-394
-772
-126
230
-439
-347
123
-421
-573
83
-4
-295
-27
155
-200
-213
204
-90
-366
92
160
-249
-65
176
-134
-159
231
129
-377
21
302
-158
138
417
-2
15
461
237
-121
251
527
175
360
684
115
237
862
519
334
839
940
493
667
1174
651
540
1075
661
217
567
639
139
-107
92
99
-77
76
-87
-364
-27
-10
-555
-463
1
-270
-396
-41
-250
-518
-216
-136
-543
-307
111
-348
-451
-11
-183
-509
-161
-83
-539
-241
85
-324
-478
-77
-129
-511
-159
7
-546
-507
-137
-421
-504
-83
-113
-449
-234
-129
-520
-381
-91
-404
-506
-69
-253
-672
-226
-71
-514
-366
-40
-564
-655
-9
-261
-648
-173
-7
-477
-257
74
-369
-360
141
1
-382
27
167
-360
-64
158
-297
-288
-127
-417
-558
-146
-75
-468
-407
-254
-562
-519
-37
-236
-482
-173
-390
-743
-564
-328
-100
1062
2853
3457
2402
827
-321
-775
-289
76
-276
-268
-69
-414
-561
1
123
-501
-401
208
-233
-405
229
-40
-356
36
57
-473
-267
261
-182
-244
276
-106
-491
111
318
-132
89
440
-91
-235
337
207
-106
379
533
28
227
631
265
230
859
649
118
684
840
389
755
1109
582
354
820
679
357
693
683
-8
11
324
-150
-220
162
-94
-396
-108
-88
-539
-434
15
-413
-586
85
-181
-574
-2
80
-443
-288
-67
-524
-451
146
-76
-494
-28
-36
-630
-331
-79
-347
-338
-111
-188
-315
-73
-16
-384
-426
20
-217
-589
-80
-81
-512
-126
-52
-536
-368
-23
-319
-518
-121
-168
-367
-268
-351
-353
-64
129
-351
-463
14
-259
-576
-72
98
-305
-186
67
-229
-192
277
121
-188
55
175
-308
-348
40
-533
-738
-42
-115
-530
-220
-116
-620
-392
57
-295
-436
-9
-156
-674
-553
-137
599
1685
3135
3295
891
-473
-425
-772
-250
126
-374
-288
30
-173
-286
144
19
-599
-96
167
-531
-303
141
-184
-227
179
132
-371
-135
242
-319
-210
367
-63
-212
322
140
-252
116
406
11
-125
255
150
-19
471
470
-62
353
814
241
133
724
586
331
801
822
482
875
871
199
318
837
594
173
567
535
-18
248
230
-285
-124
160
-287
-453
-70
-252
-494
-288
-53
-437
-492
68
-406
-687
57
-8
-478
-118
72
-388
-315
108
-316
-563
24
-105
-572
-132
-44
-605
-395
81
-228
-432
-9
-53
-535
-238
99
-402
-447
1
-366
-646
-57
-126
-519
-217
-53
-483
-557
25
-157
-501
-27
-97
-541
-260
-137
-625
-416
168
-342
-491
189
-21
-483
40
298
-385
-209
282
-127
-202
19
-366
-685
-207
-52
-478
-315
-117
-512
-679
-146
-88
-522
-297
-171
-521
-519
-344
-524
-149
1367
2308
2657
2542
633
-1137
-849
5
-270
-578
10
-46
-448
-43
49
-522
-483
-61
-108
-227
111
94
-481
-206
105
-413
-239
221
-207
-387
52
1
-306
68
277
-186
-56
196
-161
-78
328
149
-144
185
395
-38
70
547
263
95
606
564
123
574
780
315
497
742
474
456
869
706
296
521
669
262
62
299
-33
-335
71
-85
-450
-44
-127
-600
-338
-108
-394
-481
-65
-104
-633
-355
-39
-464
-411
5
-248
-697
-272
48
-511
-359
174
-439
-636
30
-159
-458
-56
-45
-558
-391
-17
-425
-496
-20
-332
-811
-211
-58
-703
-265
134
-529
-518
21
-329
-568
-67
-80
-574
-492
-95
-400
-664
-82
-267
-654
-72
-157
-625
-202
24
-325
-277
-18
-241
-337
248
190
-275
-25
67
-356
-351
-113
-441
-462
-167
-339
-534
-339
-213
-494
-465
-111
-327
-572
-111
-114
-597
-479
-170
-709
26
2367
3145
2919
1933
-52
-1141
-608
16
-299
-294
111
-169
-468
-103
-89
-541
-355
58
-288
-354
160
-191
-558
74
98
-412
-130
172
-348
-388
255
-97
-459
104
98
-391
2
323
-87
-98
252
140
-90
300
378
-92
81
512
384
208
508
500
123
591
814
375
643
954
557
329
748
726
407
606
568
-97
-50
468
-60
-333
94
-219
-596
-28
42
-527
-301
-51
-437
-446
-88
-391
-599
-126
-133
-694
-532
-93
-481
-420
115
-246
-626
-176
-79
-459
-245
-1
-391
-452
-65
-262
-604
-62
-7
-993
-589
180
-321
-525
-39
-173
-568
-155
-227
-612
-270
-77
-423
-482
-162
-364
-554
-191
-161
-575
-348
10
-454
-475
-56
-167
-466
-224
-71
-349
-147
89
-149
-222
53
13
-308
-172
6
-308
-163
78
-420
-429
29
-181
-604
-445
-186
-373
-360
-171
-534
-618
-50
-223
-699
-458
-378
-340
1025
2755
3335
3145
1630
-351
-846
-388
-116
-469
-158
311
-450
-633
113
-12
-542
-55
128
-479
-207
146
-247
-314
-3
-39
-277
26
162
-306
-133
210
-192
-216
350
151
-376
-16
252
-180
108
416
-26
62
533
392
131
432
375
137
485
734
394
421
838
761
439
724
1084
566
670
1099
477
289
802
493
-30
317
458
-242
-269
-67
-371
-174
139
-101
-486
-174
-67
-566
-212
202
-442
-580
4
-284
-692
-36
100
-544
-229
174
-518
-615
127
-172
-613
-32
-61
-537
-161
-15
-541
-448
131
-100
-503
-163
33
-433
-439
-21
-376
-559
-69
-257
-632
-46
107
-686
-489
115
-280
-505
-104
-277
-609
-96
-30
-565
-310
129
-363
-539
-111
-257
-338
131
174
-334
-119
25
-451
-151
313
-45
-286
127
34
-528
-379
-32
-430
-648
-81
-177
-737
-338
-126
-584
-434
-151
-417
-473
-105
-455
-966
341
2014
2614
3487
3015
318
-930
-163
-140
-670
-246
1
-468
-218
139
-259
-288
-103
-298
-387
-167
35
-391
-268
227
-252
-312
143
-70
-516
-310
133
-161
-175
222
-70
-261
-27
-49
-151
228
282
-300
12
547
-63
-262
464
438
3
465
738
207
248
714
498
373
913
787
314
707
825
464
614
765
368
-18
268
229
-272
39
126
-415
-219
81
-460
-638
-183
-269
-444
-129
-256
-646
-592
-215
-302
-557
-24
-160
-807
-248
83
-564
-484
-4
-428
-531
-7
-300
-640
-302
-119
-587
-519
23
-362
-689
-107
-33
-698
-341
-20
-760
-539
-47
-505
-488
-51
-233
-589
-412
-216
-533
-479
-120
-444
-608
-101
-240
-767
-404
-110
-477
-430
1
-364
-736
-127
-40
-414
-149
-8
-280
-178
169
-201
-432
192
-30
-697
-241
-204
-780
-506
-239
-520
-776
-386
-211
-575
-312
-109
-562
-596
-224
-702
-1033
-309
368
1226
3075
3845
1792
-194
-360
-521
-597
55
-152
-707
-244
-169
-607
-321
-56
-349
-504
-110
10
-556
-331
14
-431
-263
224
-296
-603
54
-21
-554
-86
234
-234
-256
123
-57
-314
253
188
-371
57
415
-84
-121
445
146
93
534
217
100
529
712
487
496
843
662
367
755
721
206
558
779
264
206
493
220
-255
58
169
-488
-210
200
-491
-671
-184
-320
-577
-186
-238
-673
-351
-219
-542
-363
-22
-323
-769
-234
11
-802
-621
51
-375
-520
-88
-423
-706
-111
-112
-633
-241
-13
-550
-424
58
-325
-695
-310
-253
-593
-342
-28
-561
-622
-67
-404
-621
-107
-146
-704
-463
-105
-486
-430
-51
-306
-712
-372
-137
-519
-366
13
-309
-630
-118
-96
-511
44
108
-347
-9
161
-271
-362
39
-163
-528
-110
-229
-687
-260
-161
-614
-410
-97
-416
-652
-236
-224
-732
-448
-170
-648
-743
-495
-100
1059
2641
3748
2930
682
-449
-639
-466
-94
-387
-478
-142
-140
-354
-289
-100
-361
-377
23
-181
-459
-10
-105
-535
-87
204
-350
-404
137
-195
-438
234
273
-391
-250
292
-107
-246
360
127
-301
161
244
-104
150
334
156
220
562
452
173
502
608
277
615
963
556
592
1017
738
476
748
718
315
367
585
111
-276
277
231
-477
-65
126
-438
-220
108
-477
-562
8
-229
-556
-263
-250
-506
-240
-80
-385
-515
-223
-256
-522
21
125
-534
-398
-13
-343
-394
-31
-336
-573
-95
36
-371
-494
-172
-339
-444
-54
-335
-499
-24
-96
-557
-282
-8
-489
-544
-54
-226
-527
-152
-6
-492
-516
-23
-323
-395
55
-343
-632
-204
-15
-424
-276
231
-177
-332
211
-8
-315
163
112
-400
-325
74
-336
-631
35
-195
-612
-32
-105
-706
-430
53
-373
-707
-76
-140
-664
-283
-321
-773
308
1922
2485
2988
2522
-15
-1300
-272
65
-419
-142
167
-282
-400
49
-102
-405
37
37
-494
-207
163
-244
-188
200
-272
-484
207
183
-345
35
326
-155
-191
351
149
-231
230
176
-215
263
461
-36
128
573
279
-25
468
672
111
316
783
462
425
891
711
283
730
889
429
636
941
712
481
752
610
92
451
502
-229
-72
368
-226
-367
2
-390
-451
6
-69
-421
-340
19
-325
-520
154
25
-487
-123
34
-434
-288
82
-357
-513
-49
35
-336
-321
-168
-322
-132
136
-161
-307
1
-190
-468
-188
6
-410
-383
80
-400
-520
175
-206
-701
-198
-59
-424
-293
8
-325
-425
49
-278
-654
-50
-18
-519
-223
229
-235
-504
171
203
-274
65
259
-306
-192
56
-512
-463
103
-231
-726
-317
-213
-669
-335
160
-240
-548
-221
-285
-666
-351
-252
-634
424
2036
2448
2759
2259
-175
-1446
-485
25
-492
-313
270
-253
-504
153
-5
-427
-9
104
-313
-193
108
-131
-324
-56
-3
-195
102
232
-207
-71
134
-148
-157
299
342
-195
111
318
-80
24
312
177
-57
435
486
23
530
555
-133
425
926
289
375
899
586
454
694
637
475
696
1034
595
375
778
590
-87
125
489
-187
-164
245
-255
-538
-32
-142
-536
-48
114
-394
-359
151
-274
-521
94
-135
-519
-72
41
-397
-307
-87
-274
-424
-152
-6
-391
-141
83
-449
-321
115
-176
-305
30
-58
-486
-241
32
-477
-481
48
-316
-548
149
-30
-631
-170
62
-408
-366
-43
-348
-504
-8
-212
-586
-126
-17
-387
-95
233
-181
-297
198
92
-482
-309
46
-274
-256
168
-188
-501
-65
-241
-789
-256
-29
-684
-385
29
-388
-513
-367
-391
-554
-384
198
765
1941
3212
2302
340
-283
-467
-675
-129
55
-571
-346
178
-195
-397
25
-130
-448
3
78
-435
-213
164
-295
-498
52
111
-482
-51
448
-330
-351
294
-15
-276
235
259
-290
19
400
-130
-105
509
59
-354
365
511
11
370
768
136
207
976
554
208
851
857
490
876
998
399
291
783
614
194
460
359
-147
124
136
-428
-232
171
-112
-445
-98
-257
-679
-142
0
-462
-242
121
-365
-616
-50
-148
-626
-249
39
-439
-419
-88
-400
-459
-20
-270
-707
-152
110
-432
-342
-30
-241
-401
-128
-77
-554
-317
-36
-572
-369
64
-492
-685
-138
-83
-469
-215
14
-533
-548
1
-267
-679
-109
6
-555
-344
-72
-410
-254
201
-70
-250
181
-59
-517
37
112
-535
-360
-3
-336
-580
-204
-203
-651
-385
-130
-463
-323
17
-264
-507
-338
-337
-704
-506
102
615
1941
3413
3083
1126
-322
-645
-730
-265
91
-414
-409
63
-145
-371
-21
-122
-478
-175
1
-377
-207
232
-182
-478
-45
-124
-478
45
109
-550
-154
402
-54
-189
207
95
-261
-12
313
-46
5
383
23
-91
425
333
-29
320
515
222
434
833
566
433
914
695
291
706
940
665
677
757
463
333
479
257
-244
59
344
-198
-324
-51
-305
-446
8
-129
-418
-292
-193
-264
-479
-183
-291
-566
-53
-276
-811
-250
112
-315
-419
-48
-278
-620
-162
-29
-656
-373
90
-511
-404
146
-207
-710
-119
46
-640
-197
67
-543
-395
69
-350
-699
-243
-201
-644
-254
59
-542
-516
58
-205
-636
-281
-90
-386
-236
-181
-578
-249
103
-329
-323
89
50
-246
-153
21
-218
-167
207
-73
-586
-310
-46
-558
-376
13
-451
-396
-137
-393
-544
-99
-7
-604
-350
-123
-826
-706
559
1493
2363
3746
3196
511
-708
-225
-257
-418
75
-95
-407
168
-87
-693
-160
159
-238
-382
-166
-163
-239
94
57
-362
-51
284
-147
-375
135
151
-310
37
223
-215
53
414
-254
-229
458
121
-62
472
528
100
162
518
216
114
772
755
256
622
857
491
842
1150
715
618
1047
878
400
743
715
74
472
621
-129
3
362
21
-281
-62
56
-451
-282
155
-292
-458
-66
-95
-586
-197
82
-565
-360
122
-460
-494
178
-168
-514
-87
45
-268
-204
-83
-481
-435
59
-252
-506
65
31
-540
-248
156
-426
-603
93
-165
-583
56
94
-431
-278
40
-289
-503
-65
-147
-510
-137
-45
-367
-268
-197
-440
-449
123
-8
-516
-137
38
-399
-323
248
-47
-181
429
172
-315
68
58
-423
-63
169
-403
-526
30
-207
-657
-115
35
-508
-342
81
-326
-482
14
-220
-544
-397
-499
-108
1411
3062
3581
2822
1074
-397
-657
-148
122
-330
-262
213
-233
-496
92
-156
-560
31
82
-224
23
147
-158
-209
164
57
-319
30
237
-346
-214
91
-178
-11
331
161
-110
314
404
-117
241
524
26
120
441
100
26
649
688
270
625
848
225
388
1113
795
506
1002
1003
593
872
1154
549
310
813
520
30
353
454
-86
-323
-156
-360
-254
194
-40
-519
-116
193
-588
-416
260
-253
-428
8
-255
-469
-210
-151
-380
-273
63
-359
-627
26
80
-350
-14
-46
-492
-225
144
-295
-529
88
-68
-579
-287
-162
-398
-278
15
-239
-358
83
-161
-528
34
-95
-735
-321
51
-265
-497
-104
-36
-468
-193
-135
-466
-174
141
-184
-390
-48
-262
-607
-13
172
-334
-11
306
-210
-203
164
-41
-289
90
62
-648
-222
242
-639
-739
3
-285
-587
-103
-46
-502
-414
-12
-217
-503
-335
-597
-600
1017
2378
2875
3501
2245
-513
-965
124
-27
-395
86
63
-489
-187
186
-266
-390
164
-126
-661
33
204
-357
-225
73
-120
-215
256
120
-356
156
343
-257
-15
460
-108
-228
383
14
-164
333
148
-149
171
603
359
182
540
420
295
719
828
378
343
868
638
484
1090
977
523
821
926
403
508
949
551
196
503
242
-156
74
104
-412
-320
200
-297
-385
144
-202
-569
-157
47
-369
-256
-9
-401
-432
-51
-61
-417
-190
1
-459
-265
90
-290
-399
87
-62
-439
-23
-61
-657
-298
188
-323
-311
124
-416
-634
4
82
-412
-212
-39
-435
-328
-18
-259
-386
6
-263
-613
-190
117
-227
-597
-309
-146
-326
-58
45
-385
-243
228
-162
-431
84
-27
-269
179
113
-456
-169
405
-83
-451
1
-190
-523
-164
-220
-577
-257
62
-392
-432
-2
-373
-704
-369
-118
-575
-666
297
1177
2087
3510
3398
834
-415
-218
-565
-236
157
-209
-320
129
-15
-458
-73
28
-435
-202
325
-20
-316
194
40
-398
36
170
-290
-76
410
-71
-314
260
151
-196
277
394
-243
22
600
154
3
500
420
25
311
544
53
259
819
530
315
750
835
524
824
967
597
797
1189
771
340
808
925
362
488
634
45
7
357
-42
-226
193
36
-405
-210
-10
-462
-469
74
-118
-297
31
-76
-434
-177
97
-467
-396
213
-282
-475
196
-89
-611
-318
-77
-177
-101
199
-93
-386
-16
-151
-509
-58
28
-509
-341
180
-227
-505
29
-224
-560
-44
7
-487
-214
81
-224
-367
-302
-243
-499
-156
272
-375
-286
184
-314
-402
136
24
-341
-6
112
-339
-122
221
-162
-162
191
-65
-349
38
105
-516
-405
141
-313
-638
39
-90
-637
-179
61
-507
-463
-1
-542
-845
7
959
1950
3332
3316
1014
-544
-333
-352
-433
90
20
-516
-88
137
-437
-170
284
-259
-529
26
57
-188
96
200
-199
-167
230
-50
-247
254
265
-206
112
411
-159
22
540
-233
-351
516
270
-71
387
415
18
244
640
246
210
776
536
254
565
708
517
583
1021
608
431
1130
772
369
789
728
217
169
555
281
-46
321
203
-372
-226
63
-358
-193
139
-331
-459
-151
-166
-380
-189
-8
-359
-501
-189
-169
-463
-130
96
-389
-126
140
-383
-233
199
-234
-483
-130
-275
-431
-130
-46
-326
-405
-77
-214
-417
-29
-67
-387
-164
-48
-328
-391
-194
-355
-519
-93
-217
-579
-118
-125
-503
-293
35
-270
-528
-61
-107
-421
-3
142
-308
-249
136
-87
-176
192
-1
-394
-342
-101
-306
-472
-156
-432
-535
63
-136
-623
-212
19
-541
-440
74
-372
-771
-344
-189
226
1808
3133
3027
1721
135
-829
-727
1
-34
-475
-130
134
-459
-465
203
-213
-628
72
92
-370
-76
108
-335
-363
122
-178
-324
131
-77
-379
65
286
-191
-145
319
16
-172
326
140
-274
226
340
-117
-157
215
322
160
530
627
158
316
727
391
525
1045
556
438
921
755
465
624
852
520
393
738
185
-321
229
147
-329
53
361
-193
-475
-2
-260
-505
67
-104
-666
-322
-46
-470
-435
-90
-335
-451
37
-47
-496
-167
32
-477
-473
-12
-182
-382
25
-45
-540
-218
76
-371
-407
-18
-224
-542
-228
-196
-497
-165
137
-470
-469
102
-323
-568
-84
-152
-474
-131
34
-582
-490
86
-403
-750
-107
46
-517
-243
200
-268
-363
131
-135
-484
25
172
-155
57
197
-193
-234
49
-313
-537
-55
-245
-729
-310
-29
-459
-325
118
-320
-613
-158
-165
-537
-300
-171
-797
-387
1154
2120
3117
3610
1567
-687
-476
59
-401
-244
191
-212
-426
-19
-101
-448
-22
-29
-466
-222
-72
-268
-240
131
39
-393
-96
169
-319
-291
244
-143
-337
369
257
-258
-40
151
-75
-40
346
146
-46
409
187
-154
382
707
280
212
750
595
188
647
875
370
516
1062
692
562
1172
779
404
788
544
60
304
526
-59
-78
300
-136
-618
-205
77
-367
-232
1
-388
-293
90
-331
-576
12
-148
-707
-246
-56
-478
-251
-32
-441
-363
98
-4
-419
-273
35
-413
-467
-19
-205
-445
-100
26
-475
-279
134
-470
-531
43
-250
-512
-38
-35
-468
-187
-19
-511
-341
115
-291
-589
30
-120
-785
-167
76
-595
-406
67
-273
-372
72
86
-290
-216
45
-132
-99
295
86
-170
204
38
-403
-204
-79
-404
-346
-134
-493
-555
-157
-187
-511
-351
45
-402
-565
150
-206
-834
-522
-296
502
2227
3402
3394
2004
47
-783
-589
-59
81
-371
-202
114
-292
-303
153
-210
-600
-56
108
-254
-93
41
-380
-301
189
-60
-342
80
147
-252
-20
251
-112
-68
194
-77
-105
297
111
-192
128
254
139
40
250
506
258
506
774
269
380
793
363
414
987
652
472
1002
799
474
768
810
452
492
760
325
-13
294
213
-357
-35
268
-322
-411
-94
-336
-493
6
14
-454
-269
-155
-521
-221
17
-514
-422
172
-144
-609
-183
52
-391
-436
20
-95
-406
-53
-27
-575
-228
0
-598
-402
19
-384
-380
231
-86
-569
-146
45
-460
-315
206
-378
-683
-127
-360
-580
-134
-13
-360
-393
-44
-259
-522
-39
-66
-563
-252
9
-355
-300
126
-141
-241
277
133
-312
67
347
-224
-350
156
-199
-734
-105
55
-657
-419
-29
-564
-466
55
-410
-565
-29
-296
-651
-193
-212
-928
-307
1680
2757
3336
3358
1099
-886
-504
38
-236
-263
135
-214
-458
78
-97
-388
-63
42
-340
-232
216
-73
-256
214
95
-374
4
190
-302
-245
223
167
-39
181
118
-154
167
323
-84
18
439
36
-69
474
421
74
261
659
350
280
794
508
228
848
888
431
693
873
561
764
1061
739
606
809
518
90
339
394
-88
-75
208
-186
-397
7
-150
-486
-212
-86
-400
-392
6
-215
-651
-111
-53
-719
-372
89
-438
-498
-52
-473
-535
-11
-338
-627
-184
-27
-410
-368
114
-227
-667
-182
-154
-735
-294
22
-786
-538
83
-347
-631
-214
-134
-678
-471
-36
-488
-530
37
-264
-592
-263
-381
-719
-301
-112
-663
-523
-28
-330
-650
-223
-170
-573
-162
232
-273
-290
119
-137
-265
66
-144
-480
-428
-249
-508
-697
-91
-304
-639
-149
-293
-768
-453
-194
-652
-605
-253
-475
-628
-443
-672
-348
1579
3135
3412
2514
462
-1096
-976
-113
-59
-528
-160
94
-667
-554
6
-410
-544
-98
-179
-544
-283
-25
-388
-349
-40
-287
-403
-24
-51
-445
-203
-78
-371
-167
141
-135
-318
197
77
-339
158
16
-356
173
371
100
42
361
311
-47
381
737
380
281
721
653
80
523
1012
511
659
994
401
334
666
103
-344
64
192
-214
-153
131
-285
-638
-255
-390
-565
-69
-252
-624
-376
-405
-660
-262
5
-534
-544
-61
-237
-624
-237
-62
-733
-475
54
-341
-490
-235
-282
-546
-340
-31
-498
-471
87
-292
-534
-139
-274
-623
-202
0
-605
-504
1
-397
-679
-145
-85
-460
-239
-22
-510
-553
42
-204
-521
6
-47
-569
-307
-129
-472
-271
154
-149
-242
147
29
-235
67
353
-237
-413
190
8
-296
-48
-142
-373
-156
63
-330
-477
-27
-183
-427
43
11
-632
-228
274
-449
-726
-55
521
1462
3325
4126
2153
64
-304
-559
-346
395
74
-317
275
274
-206
114
142
-293
-137
300
101
-23
443
232
-240
200
382
-132
19
552
197
-157
416
203
-163
392
554
219
211
527
274
166
687
623
132
491
862
390
462
920
544
316
1091
943
332
1137
1375
724
947
1249
923
839
1113
988
604
728
870
270
156
644
262
-172
316
361
-259
4
412
-88
-127
358
8
-304
67
-85
-220
255
449
-56
-246
295
177
-137
261
211
-277
80
412
-57
27
347
-24
-165
176
210
-134
105
404
-161
-96
465
-20
-373
242
307
-269
-39
306
-141
-119
414
40
-282
308
234
-312
1
350
-27
-351
33
180
-146
377
448
-152
254
488
42
128
547
253
-42
467
358
-233
10
144
-228
-383
59
108
-242
226
215
-325
46
279
-219
-146
304
-86
-762
-345
489
1296
2654
3561
2580
556
-369
-409
-377
131
243
-189
103
377
-102
-122
448
191
-253
227
293
-79
248
456
-23
-49
267
34
-46
415
366
-91
287
539
49
69
635
318
-177
503
665
109
334
688
317
241
628
374
294
808
725
329
735
1044
531
569
1181
907
541
1065
1109
605
822
1044
573
430
725
390
120
404
153
-95
68
181
-141
-224
179
11
-191
154
114
-315
-68
268
-218
-476
135
47
-313
137
85
-250
-51
30
-227
-139
249
-21
-420
53
253
-292
-65
224
-237
-128
250
-252
-531
195
78
-430
-56
36
-364
-288
134
-173
-392
198
-66
-558
14
259
-301
-342
202
-84
-389
101
-15
-360
11
207
-262
-145
503
82
-238
427
235
-364
30
171
-402
-256
208
-241
-521
-97
-67
-474
-230
199
-287
-367
175
-205
-698
-154
-98
-61
1436
2622
2512
2072
486
-1074
-606
44
-7
-293
-114
381
-106
-384
177
-39
-294
224
204
-273
114
254
-315
-103
358
-10
-227
275
293
-119
139
430
-2
-6
475
142
-217
352
436
22
217
268
-15
286
654
414
345
642
601
303
571
857
539
703
989
594
373
993
957
235
788
1174
601
530
814
478
28
375
372
-116
148
264
-167
-107
126
-324
-474
239
134
-360
-40
62
-332
-178
217
-198
-477
116
41
-620
-131
331
-251
-354
140
-40
-335
85
-63
-322
-41
-29
-194
-199
133
-32
-537
39
276
-296
-164
-54
-307
-99
78
-413
-488
108
66
-449
-67
248
-440
-402
160
-149
-302
91
54
-337
-84
209
-323
-212
326
98
-59
344
174
-315
45
330
-134
-409
-59
-177
-607
-122
124
-384
-169
87
-425
-389
-5
-218
-322
15
-157
-822
-443
753
1461
2399
3550
2525
70
-440
-128
-601
-194
256
-350
-197
451
-180
-596
207
148
-389
90
297
-203
-207
127
-101
-225
219
185
-315
-104
256
3
-55
189
132
-95
135
241
-251
24
614
126
74
578
149
-116
623
607
123
513
649
334
430
761
597
508
963
959
536
808
1100
661
543
692
441
281
587
576
-110
-106
311
-237
-325
211
-131
-400
142
79
-477
-150
69
-357
-337
104
-149
-481
-29
-158
-587
-259
-6
-271
-228
99
-248
-441
155
-21
-482
-33
107
-390
-263
118
-259
-440
-54
-172
-538
-269
71
-425
-485
352
-53
-643
88
63
-591
-203
31
-421
-300
70
-298
-543
-24
-113
-566
-176
83
-254
-158
232
-85
-301
254
97
-338
91
193
-201
-228
83
-206
-503
13
28
-501
-328
-35
-594
-575
35
-228
-436
-102
-127
-451
-466
-440
-592
382
2054
2861
3416
2830
334
-1016
-336
2
-434
-311
124
-101
-397
86
81
-565
-139
188
-311
-270
266
-3
-391
60
23
-305
-37
267
-182
-635
9
240
-117
179
309
-157
41
466
-187
-270
478
278
-144
305
471
-8
368
695
195
247
681
491
284
751
839
564
887
1125
727
576
980
618
208
767
582
72
290
180
-294
-144
207
-92
-433
-116
41
-285
-284
-92
-375
-353
-22
-480
-559
83
-101
-621
-243
70
-433
-573
-191
-263
-282
14
-97
-474
-261
53
-436
-520
9
-252
-509
-63
-132
-482
-92
133
-581
-551
54
-438
-627
-4
-91
-574
-313
-31
-401
-339
44
-216
-466
-121
-90
-570
-401
-74
-492
-380
220
-208
-795
-213
191
-198
-52
254
-173
-159
247
-90
-234
60
5
-314
-262
-92
-493
-497
45
-162
-597
-212
-144
-622
-295
28
-394
-400
-40
-428
-899
-517
246
1126
2491
3823
3078
875
-204
-505
-516
89
141
-498
-169
213
-263
-239
116
-195
-475
-4
28
-532
-222
230
-249
-159
317
-147
-360
120
98
-198
49
224
-101
-92
329
85
-302
202
413
-125
77
529
137
-68
466
501
135
532
751
251
424
987
593
478
1027
757
509
1020
953
542
834
911
408
347
635
385
2
326
222
-310
45
65
-477
-269
87
-219
-690
-211
-6
-490
-103
80
-461
-369
116
-230
-455
35
-241
-568
-82
-24
-527
-361
10
-287
-369
43
0
-537
-288
14
-495
-382
-37
-310
-324
21
-216
-629
-148
54
-510
-310
89
-310
-464
-304
-353
-454
-220
10
-422
-399
56
-303
-470
-127
-265
-512
-112
145
-406
-616
-96
3
-370
6
233
-373
33
337
-363
-130
301
-154
-330
24
-198
-578
-353
-78
-311
-521
-163
-326
-565
-45
-244
-599
-279
-116
-398
-762
-478
-333
299
2039
3018
3329
2629
553
-851
-604
-21
-249
-348
180
51
-512
-234
87
-212
-239
86
-127
-375
-42
-107
-355
68
81
-424
-125
236
-112
-131
256
117
-211
124
267
-329
-127
360
-10
-146
235
272
108
254
357
94
210
647
312
191
615
587
417
545
727
570
723
1113
730
492
978
854
363
578
540
11
156
460
-16
-296
64
-80
-427
-138
-27
-413
-280
100
-370
-675
-137
-189
-636
-389
-210
-494
-305
74
-247
-506
-70
-82
-624
-365
119
-445
-525
53
-369
-609
-145
-264
-580
-171
27
-355
-307
-84
-269
-563
-338
-164
-537
-346
-176
-589
-506
-44
-141
-409
-287
-377
-627
-337
-85
-503
-512
-100
-289
-621
-262
-215
-704
-245
13
-521
-296
143
-200
-438
46
187
-453
-320
267
-169
-463
-57
-392
-773
-229
-203
-582
-424
-231
-564
-594
-66
-400
-719
-194
-337
-803
-475
-244
-932
-727
993
2153
3036
3561
1741
-659
-741
-86
-477
-477
2
-312
-616
-89
-167
-766
-254
132
-381
-257
144
-341
-523
-125
-144
-251
-143
19
-156
-243
-20
-266
-299
141
136
-265
-135
232
-275
-263
465
144
-118
351
250
-77
345
520
19
205
664
346
275
734
667
371
671
895
468
619
1041
598
449
894
525
-17
353
359
-223
-57
270
-118
-455
-139
11
-468
-336
5
-458
-479
-26
-392
-638
-126
-255
-638
-227
-20
-398
-375
16
-232
-656
-186
-120
-501
-168
-113
-535
-398
-15
-315
-523
-105
-48
-461
-231
71
-476
-433
-96
-534
-502
4
-103
-577
-370
-124
-548
-404
-14
-382
-534
-24
-207
-684
-142
117
-525
-586
-27
-263
-462
-9
-19
-221
-162
44
-146
-148
293
-20
-325
141
49
-484
-77
84
-603
-521
-5
-247
-486
-60
-189
-573
-190
-68
-528
-365
102
-375
-740
-327
-122
370
1847
3285
3307
1727
-45
-865
-753
12
191
-294
6
245
-303
-364
42
-59
-247
108
-47
-402
127
349
-173
-249
204
74
-296
91
324
-87
130
305
-203
-17
360
45
-137
338
417
-144
264
669
70
187
722
331
48
726
726
76
503
1031
493
408
1057
815
541
1038
1011
592
856
955
407
429
743
394
175
517
236
-262
88
219
-291
-197
182
-183
-395
49
13
-397
-150
34
-481
-381
302
-42
-523
31
185
-333
-114
188
-285
-358
113
-101
-375
19
-5
-380
-157
122
-212
-248
177
-28
-381
53
2
-566
-26
7
-682
-206
340
-170
-471
53
66
-441
-237
95
-273
-319
73
-190
-407
-38
-155
-498
-46
356
-184
-210
335
35
-169
311
240
-206
-127
-13
-179
-73
-2
-365
-352
-32
-189
-432
-129
11
-455
-477
-41
-320
-520
128
-55
-839
-437
459
1105
2417
3633
2496
280
-380
-467
-664
-187
65
-358
-292
189
-98
-380
40
-23
-289
78
73
-349
-201
256
-87
-382
208
77
-276
220
235
-196
-108
187
37
-244
251
177
-303
337
520
-102
58
588
263
-40
534
593
86
356
622
320
373
782
651
311
844
997
421
757
1125
611
554
999
639
145
470
464
-19
253
343
-294
-202
87
-316
-297
119
-220
-631
-69
130
-504
-322
176
-254
-499
-109
-176
-443
-117
128
-461
-399
216
-225
-458
5
-83
-370
-83
27
-418
-334
179
-291
-591
71
-85
-571
-173
191
-417
-553
218
-169
-618
55
-78
-554
-166
-73
-424
-261
69
-230
-578
-159
-2
-530
-121
160
-576
-349
171
-123
-159
233
105
-295
-142
106
-44
57
283
-57
-380
-167
-146
-511
-116
61
-620
-418
136
-326
-550
34
-62
-513
-366
-112
-407
-596
-128
350
1420
3179
3675
2134
318
-412
-570
-311
105
-97
-293
149
-147
-614
-2
170
-329
-201
162
-168
-434
97
106
-401
92
275
-399
-189
201
-153
-159
392
268
-268
58
204
-209
24
483
176
-54
532
325
-221
284
509
184
370
704
466
344
681
639
296
702
1106
637
732
1199
746
385
838
815
292
513
664
56
60
461
-86
-357
145
-72
-421
-11
33
-515
-514
12
-185
-527
23
-74
-709
-194
126
-425
-374
92
-289
-692
-11
44
-510
-191
-81
-356
-165
-32
-339
-380
-1
-183
-485
-84
89
-492
-558
24
-208
-540
-17
-143
-597
-142
-107
-540
-221
25
-338
-521
-227
-165
-522
-231
108
-378
-342
106
-305
-632
-107
11
-569
-211
317
-190
-200
173
-235
-389
250
247
-275
-51
209
-395
-571
-120
-374
-514
-20
-155
-481
-245
-241
-533
-584
-106
-193
-460
-27
-550
-1209
-244
1364
2248
3241
3793
1493
-743
-302
-236
-577
42
134
-434
-351
109
-257
-695
-93
83
-413
-28
178
-423
-361
50
-184
-251
171
149
-325
-167
131
-250
-179
286
-70
-331
164
-16
-350
225
376
-68
98
490
259
-9
455
383
-20
496
739
304
386
869
571
185
789
973
496
953
1028
481
624
656
412
341
534
409
-119
-80
54
-291
-269
69
-206
-567
-168
-110
-453
-184
-136
-582
-443
-64
-323
-588
-76
4
-615
-239
98
-489
-402
81
-359
-596
49
-15
-489
-262
-237
-575
-377
87
-168
-519
-44
-157
-710
-228
26
-504
-308
37
-518
-628
-137
-174
-472
-234
-107
-399
-280
-78
-386
-468
-97
-220
-506
-175
-49
-591
-616
-171
-219
-306
124
31
-413
-33
167
-421
-212
424
0
-197
116
-74
-512
-374
-77
-530
-492
-81
-517
-555
4
-125
-589
-368
-61
-500
-497
-74
-595
-796
-29
950
2096
3507
3681
1185
-657
-299
-307
-389
126
-45
-486
-87
25
-522
-158
48
-473
-268
178
-8
-366
-26
168
-302
-183
106
-299
-354
155
108
-218
-11
150
-217
-170
370
132
-122
312
170
-99
275
375
31
167
655
260
-38
659
635
256
755
940
427
559
993
590
546
1079
770
549
896
751
231
358
719
42
-322
218
93
-323
-53
158
-282
-480
-136
-300
-420
6
-72
-540
-392
-42
-569
-539
51
-267
-467
-43
-178
-659
-108
159
-555
-432
172
-163
-505
-80
-144
-612
-264
3
-503
-409
145
-300
-640
-60
-146
-533
-195
-87
-592
-608
7
-162
-498
11
-174
-642
-234
-343
-688
-277
49
-363
-600
-106
-195
-535
-140
-54
-441
-280
103
-144
-416
-37
-47
-360
20
88
-364
-101
274
-162
-312
-21
-363
-620
-179
-177
-572
-332
-161
-534
-484
-161
-465
-606
-129
-245
-695
-567
-402
-302
820
2605
3604
3096
1290
-296
-860
-451
167
-182
-529
-88
-171
-528
-28
91
-503
-194
232
-205
-286
-17
-121
-328
51
195
-500
-439
229
88
-187
258
191
-312
69
255
-298
-59
392
52
-145
145
215
-129
216
604
190
131
587
504
310
766
764
320
600
842
491
675
1080
618
382
926
796
330
668
716
105
43
377
85
-228
31
-80
-382
-61
-3
-535
-417
-71
-358
-379
91
-274
-663
-105
-42
-491
-268
77
-317
-431
76
-177
-678
-246
-7
-343
-264
3
-299
-549
-125
-29
-404
-157
-1
-429
-419
-59
-255
-525
6
-108
-631
-122
55
-489
-488
-81
-337
-486
52
-191
-576
-53
-205
-764
-296
105
-278
-358
-33
-252
-557
-178
28
-479
-265
214
-184
-240
145
29
-326
-3
193
-199
-120
60
-230
-431
-160
-264
-692
-176
53
-723
-485
125
-423
-574
-57
-222
-553
-297
-287
-953
-270
1650
2550
3376
3350
942
-834
-641
-178
-244
-147
196
-126
-395
-54
-203
-449
64
-9
-547
-172
165
-266
-248
219
-217
-499
136
280
-215
-196
360
-4
-320
251
123
-248
145
320
-45
-10
272
83
18
439
409
-4
312
713
202
303
882
513
377
799
657
223
769
1200
631
720
1096
701
496
887
694
226
440
403
-116
76
280
-366
-584
84
-2
-482
21
-29
-489
-31
136
-424
-492
-14
-99
-658
-267
21
-473
-195
89
-268
-273
87
-149
-487
-9
52
-466
-204
55
-351
-367
137
-55
-582
-94
80
-623
-306
163
-260
-250
26
-209
-444
-143
-133
-545
-254
29
-385
-346
115
-118
-491
3
59
-704
-388
240
-271
-552
32
2
-580
-121
400
-152
-140
425
93
-132
336
122
-296
69
131
-496
-391
63
-341
-351
86
-249
-600
-121
31
-465
-287
144
-271
-512
42
-344
-941
20
1303
2321
3617
3194
671
-588
-69
-190
-549
163
310
-332
-150
253
-207
-418
106
2
-237
56
44
-276
-191
261
-76
-236
303
16
-219
259
273
-113
10
315
-96
-161
518
246
-220
328
385
-30
412
626
164
170
598
530
132
557
820
369
626
950
533
603
1165
740
424
1044
1010
564
779
954
374
227
643
366
-58
175
162
-274
-108
133
-291
-445
13
-91
-419
-39
-25
-442
-152
110
-380
-410
55
-180
-471
-141
-12
-313
-224
110
-242
-433
13
-127
-430
-20
102
-437
-390
121
-317
-561
218
-58
-698
-90
136
-450
-323
90
-401
-530
175
-206
-801
-168
41
-543
-337
143
-179
-404
-182
-139
-354
-191
-57
-503
-330
118
-225
-336
151
61
-278
120
294
-264
-208
218
-189
-345
89
-235
-494
-89
-304
-583
-117
117
-409
-482
-18
-425
-631
-61
-27
-443
-591
-429
-373
606
2377
3185
2877
1157
-663
-922
-321
87
-243
-283
107
-158
-380
55
-17
-394
43
166
-317
-240
113
-82
-347
0
140
-320
-283
137
-133
-165
402
225
-171
239
350
-212
105
496
-103
-93
406
333
99
204
347
-79
106
872
463
365
923
591
364
769
776
458
680
1019
666
641
1064
648
299
722
649
1
109
441
-99
-200
368
51
-563
-32
274
-545
-409
279
-330
-618
74
-194
-524
-96
-88
-349
-190
73
-370
-466
67
-194
-425
130
163
-441
-234
136
-362
-451
83
-150
-508
7
5
-698
-403
128
-353
-362
232
-18
-544
-194
-4
-490
-300
21
-363
-395
-135
-335
-534
-89
-67
-605
-166
114
-428
-369
143
-113
-382
48
14
-335
51
250
-185
-119
116
-221
-391
-130
-244
-548
-239
17
-371
-423
-90
-349
-609
-192
-177
-424
-248
-387
-577
-396
-300
-352
235
1728
2950
3020
1887
134
-1094
-749
110
-222
-555
-39
-74
-485
-98
184
-524
-472
318
-99
-470
50
-67
-415
-157
0
-248
-344
170
74
-284
230
199
-390
-157
286
-176
-211
382
11
-163
417
21
-407
178
569
263
209
624
376
233
675
574
292
597
790
474
545
949
765
536
872
677
131
525
788
240
153
369
-40
-293
115
-38
-499
-123
164
-342
-290
17
-530
-655
-86
-189
-550
-85
-39
-608
-483
-13
-130
-470
-82
129
-484
-411
11
-444
-434
72
-315
-532
40
-43
-593
-234
45
-403
-427
-107
-154
-496
-336
-166
-376
-224
-12
-390
-406
-47
-321
-422
-302
-309
-367
-200
-42
-427
-480
-31
-239
-531
-45
-107
-527
-153
110
-226
-206
94
-121
-333
60
126
-268
-22
134
-349
-404
-11
-221
-547
-72
-194
-688
-312
-247
-507
-346
-54
-326
-687
-246
-274
-819
-494
469
1227
2408
3776
2828
436
-331
-334
-656
-170
166
-457
-383
145
-243
-496
-13
-39
-460
-124
67
-452
-242
228
-115
-285
127
15
-535
-228
329
-56
-204
180
-45
-168
260
184
-191
158
415
-35
-99
317
211
-44
438
580
-8
404
949
218
257
961
597
370
964
990
527
885
1102
555
598
921
545
235
542
232
-207
256
308
-170
-87
202
-261
-441
73
-90
-502
-186
66
-552
-636
96
-63
-547
-266
-208
-532
-112
121
-390
-327
102
-235
-488
-82
-222
-572
-136
135
-502
-425
252
-322
-745
54
143
-487
-296
-65
-411
-304
46
-434
-724
-85
-117
-469
-72
-63
-481
-282
47
-362
-574
14
-62
-571
-141
-48
-620
-468
5
-291
-588
157
176
-516
-10
363
-189
-134
301
-118
-330
148
57
-405
-165
30
-554
-531
9
-288
-549
-19
-158
-685
-195
-25
-557
-451
-79
-417
-743
-263
492
1433
2911
3933
2630
392
-351
-320
-424
-102
-20
-486
-100
214
-384
-359
93
-187
-319
185
31
-381
-57
-75
-387
-211
148
-132
-430
183
128
-378
112
357
-238
-71
297
-93
-118
264
215
-99
154
410
65
69
467
212
85
711
548
162
704
834
406
625
1092
584
470
1183
858
465
845
857
299
354
667
133
22
374
31
-310
-71
100
-324
-203
91
-431
-632
-158
-22
-486
-320
-40
-501
-371
104
-410
-523
84
-68
-483
-260
-42
-454
-304
195
-277
-511
-57
-158
-500
-108
114
-446
-415
-58
-409
-428
100
-89
-517
-104
-53
-541
-345
-87
-322
-366
-56
-119
-587
-357
7
-531
-376
129
-319
-467
-119
-150
-401
-138
-20
-537
-279
156
-235
-309
133
5
-469
59
462
-250
-185
366
-124
-297
132
-88
-449
-171
51
-412
-519
-115
-318
-456
45
-233
-766
-198
48
-499
-507
-198
-587
-520
1125
2486
3157
3577
1948
-432
-562
109
-280
-219
86
-298
-417
-37
131
-335
-300
128
-195
-269
172
28
-276
-55
42
-260
-148
278
22
-265
208
-20
-463
207
441
-102
-99
352
144
-174
366
333
-131
321
631
173
94
515
402
187
704
810
323
676
947
505
550
798
600
690
1212
1001
388
732
880
184
227
534
142
-72
165
-6
-378
-75
-33
-408
-148
103
-372
-549
-72
-201
-532
-67
93
-406
-378
-157
-451
-455
29
-67
-428
-180
-25
-469
-373
197
-241
-458
197
-271
-736
-4
120
-551
-380
222
-403
-633
66
-197
-607
-191
-53
-418
-280
-42
-362
-455
37
-73
-489
-154
-147
-658
-349
189
-328
-505
-39
-277
-411
-27
-48
-471
-195
355
-313
-557
287
144
-297
141
227
-274
-97
212
-193
-346
30
-94
-424
-181
-70
-451
-362
-74
-469
-460
25
-337
-535
-85
-240
-603
-553
-371
-132
921
2679
3648
3206
1570
-143
-779
-328
145
-206
-332
66
-121
-446
-119
60
-348
-242
210
-274
-455
272
219
-215
107
139
-298
-43
269
-289
-375
321
158
-201
173
155
-277
-45
483
206
-44
476
430
-64
252
527
142
357
749
375
171
627
630
333
848
1057
616
743
1102
689
491
1127
941
409
779
741
204
342
333
-214
-269
121
65
-369
-33
183
-499
-457
-10
-273
-369
8
-62
-626
-405
117
-409
-326
207
-283
-408
186
-181
-773
-230
39
-335
-131
136
-290
-437
-111
-176
-591
-260
97
-366
-261
327
-283
-762
-42
-184
-590
-27
-37
-772
-328
295
-287
-437
83
-144
-560
-108
13
-530
-413
0
-314
-472
169
-85
-922
-361
155
-347
-126
280
-173
-258
212
109
-174
120
170
-275
-43
381
-474
-762
204
-122
-675
-120
13
-544
-473
5
-377
-516
33
-116
-502
-245
-235
-846
-673
459
1306
2459
3984
3232
481
-453
-313
-778
-298
331
-191
-363
32
-298
-400
118
99
-262
-50
304
-101
-360
-10
-147
-306
111
203
-118
-201
-15
5
-10
299
159
-166
299
361
-220
28
356
64
102
486
367
-5
308
634
276
423
884
330
227
1022
784
309
930
1149
557
805
1213
708
606
1059
739
336
609
529
65
147
429
-88
-270
367
-229
-714
227
201
-518
-253
157
-388
-498
128
-45
-409
-64
29
-507
-287
275
-177
-359
188
-192
-724
-35
194
-435
-121
304
-281
-379
124
-90
-411
-43
14
-383
-222
-24
-192
-263
-156
-243
-444
35
155
-323
-131
37
-284
-299
38
-200
-548
-95
52
-379
-153
3
-461
-213
96
-124
-248
42
141
-335
59
432
-84
-82
250
25
-309
-51
-1
-440
-62
265
-386
-501
-14
-234
-522
-7
-28
-418
-86
40
-370
-492
-324
-527
7
1844
3059
3389
2615
569
-842
-645
125
19
-337
24
165
-325
-186
193
-303
-240
427
117
-426
252
540
-295
-70
399
-91
-206
144
52
-83
318
398
-87
-10
376
68
70
594
293
-37
382
296
-64
400
665
207
222
724
578
334
623
744
649
855
1002
604
640
1180
932
570
1047
1127
459
559
858
307
248
501
-28
-211
283
253
-140
41
209
-191
-276
97
-112
-494
-12
29
-409
-151
64
-242
-297
133
-84
-519
62
198
-327
96
322
-301
-261
119
-113
-252
69
46
-342
-98
188
-339
-290
174
-105
-377
-93
-39
-403
-65
244
-316
-314
101
-174
-401
-93
75
-381
-275
283
-246
-328
212
-222
-492
-26
121
-220
-180
183
-29
-122
352
267
-102
192
134
-334
-289
-98
-108
-254
-115
-213
-408
34
-36
-535
-218
32
-294
-234
155
-213
-623
-101
284
771
2170
3341
2524
572
-392
-646
-547
17
-22
-408
-38
206
-331
-388
303
160
-324
149
297
-180
-94
192
-64
30
416
-110
-274
270
51
-128
51
91
106
94
450
360
-123
280
488
93
272
493
234
119
469
517
193
462
585
280
601
951
551
492
952
702
456
909
911
522
702
990
683
530
723
313
-70
302
264
-124
111
227
-333
-339
199
-3
-347
21
54
-445
-175
159
-329
-285
286
-162
-559
-20
-66
-239
115
-34
-391
-176
181
-145
-355
15
-182
-484
-55
300
-159
-227
213
-113
-433
-9
7
-553
-140
-50
-811
-340
237
-148
-304
-19
-117
-449
-74
157
-353
-240
54
-242
-288
63
-52
-380
-120
-13
-243
16
308
-58
-165
308
130
-314
-60
71
-335
-377
-34
-285
-617
-299
-56
-397
-259
78
-358
-440
35
-220
-682
-394
152
924
2169
3373
2648
511
-190
-440
-652
49
-31
-454
-74
109
-335
-341
174
-37
-341
69
103
-486
-251
295
-109
-203
190
-27
-240
-36
-23
-273
-71
310
-159
-119
370
-244
-156
492
242
-55
235
473
15
-136
568
441
-55
508
469
43
627
884
396
527
849
574
519
984
938
479
778
886
227
276
654
250
10
353
180
-290
-50
36
-449
-310
48
-205
-375
-148
-143
-549
-361
63
-371
-442
77
-265
-853
-212
216
-422
-240
222
-320
-404
102
-191
-477
-59
5
-502
-347
116
-462
-624
-77
-281
-353
58
15
-489
-385
-35
-367
-327
158
-296
-652
50
-87
-659
-151
148
-496
-472
76
-292
-681
-192
-9
-458
-199
138
-290
-253
157
-89
-230
182
137
-255
-87
70
-417
-407
99
-337
-560
-6
-206
-665
-271
27
-432
-540
-65
-290
-582
-96
-280
-857
-400
808
1688
2809
3882
2245
-257
-432
-278
-609
-63
286
-491
-422
168
-357
-459
115
-11
-425
-139
155
-216
-184
156
-190
-261
181
111
-327
-162
160
-241
-183
343
-39
-258
277
246
-198
44
300
-130
70
480
33
15
539
489
133
297
708
492
475
898
549
385
909
836
485
705
968
754
532
754
518
139
638
493
-139
171
335
-309
-367
226
-134
-620
-105
-79
-547
-218
60
-448
-518
-161
-311
-408
-87
-135
-501
-155
94
-609
-473
228
-263
-537
-47
-330
-650
-90
40
-427
-365
46
-238
-493
-54
-194
-618
-174
59
-374
-491
-131
-235
-580
-154
-97
-585
-337
-6
-420
-519
-49
-303
-573
-11
-174
-662
-202
58
-416
-368
38
-129
-432
-201
-86
-395
-17
260
-225
-228
128
-226
-551
-72
-53
-543
-349
-71
-433
-426
-85
-339
-643
-265
-105
-583
-506
-367
-716
-587
-95
378
1445
3249
3912
2251
256
-415
-551
-433
-53
-193
-380
-38
-113
-552
-219
-9
-390
-205
38
-263
-364
63
46
-459
-90
127
-427
-264
260
-47
-396
120
171
-345
-167
103
-143
-180
268
101
-203
332
441
-161
-17
629
191
0
608
250
146
808
674
330
744
928
484
625
1021
700
491
854
804
384
621
482
-154
93
422
-90
-416
127
30
-536
-296
-159
-500
-400
90
-183
-619
-201
-78
-520
-295
-58
-543
-455
67
-168
-460
-241
-249
-521
-260
155
-299
-479
-46
-356
-612
63
66
-547
-313
-74
-488
-463
24
-169
-462
-121
-31
-524
-443
-75
-389
-469
-50
-229
-658
-245
-155
-569
-178
73
-463
-571
-28
-183
-544
-10
-73
-638
-140
163
-309
-244
180
-169
-457
287
181
-553
-49
113
-615
-476
79
-260
-592
-75
-135
-633
-274
-64
-476
-304
-47
-449
-534
-178
-392
-988
-525
890
1961
3101
3925
1910
-610
-502
-321
-583
-8
196
-387
-355
134
-316
-494
99
-39
-567
-284
153
-328
-580
83
-21
-333
157
-95
-511
-106
169
-101
-96
227
-30
-298
57
80
-168
151
256
-44
9
386
241
50
502
403
-67
274
718
369
384
924
533
258
884
888
588
843
945
605
534
825
527
155
503
362
-172
105
238
-509
-532
124
-219
-463
15
-103
-482
-298
-93
-407
-540
-180
-258
-432
-153
-264
-559
-262
6
-357
-380
-44
-332
-480
-254
-227
-432
-332
-9
-429
-482
77
-316
-711
-162
-110
-718
-422
51
-382
-536
-349
-483
-486
-141
-330
-667
-281
-189
-603
-530
-83
-314
-654
-225
-258
-715
-362
-74
-543
-474
78
-379
-748
-32
110
-524
-325
99
-309
-238
136
-233
-327
42
-259
-615
-250
-256
-837
-542
-15
-528
-620
-27
-190
-642
-334
-205
-779
-760
-447
-446
517
2163
3245
3318
1820
39
-745
-539
78
-148
-553
-51
-60
-685
-284
113
-374
-412
6
-203
-449
85
41
-481
-67
178
-338
-318
179
20
-461
-72
219
-214
16
228
-90
0
287
1
-214
296
280
-66
281
471
-66
16
732
420
170
762
750
307
560
928
591
623
1047
672
474
1001
899
439
633
684
95
158
420
-104
-263
110
5
-433
-211
-5
-480
-334
146
-221
-618
-119
-74
-656
-295
59
-428
-436
99
-280
-562
-5
-101
-359
-206
8
-371
-553
136
-16
-582
-228
-87
-554
-204
91
-427
-358
49
-238
-509
-116
-191
-545
-218
-219
-490
-229
70
-259
-615
-129
4
-456
-126
-66
-571
-289
51
-445
-573
-127
-198
-275
58
176
-280
-185
394
-121
-311
359
28
-549
-205
21
-479
-441
9
-320
-600
-211
-16
-324
-355
-56
-344
-440
-23
-303
-612
-448
-369
205
1803
3204
3222
1853
123
-852
-786
102
141
-461
-67
214
-316
-377
172
-81
-407
66
13
-334
-17
166
-352
-245
294
-110
-213
244
58
-198
120
355
-149
-147
467
154
-152
376
225
-301
192
547
69
89
445
211
233
726
482
137
666
861
386
361
930
887
525
921
1018
496
794
951
332
455
784
321
-86
319
299
-308
-131
209
-178
-247
43
-245
-442
-142
-86
-297
-178
-117
-408
-287
30
-230
-444
-187
-166
-373
-77
48
-396
-230
104
-225
-464
-129
-52
-379
-226
42
-395
-614
80
-80
-513
-113
-212
-471
-114
88
-253
-416
-251
-342
-376
-122
-338
-540
-90
17
-451
-406
-99
-347
-464
-79
-61
-378
-44
134
-472
-227
224
-133
-178
157
60
-345
-200
-45
-449
-415
64
-272
-595
2
-133
-832
-447
28
-546
-469
105
-346
-563
-305
-81
706
2048
3200
2742
915
-240
-826
-788
11
42
-480
-152
32
-733
-454
349
63
-276
33
27
-320
-10
208
-228
-202
123
-142
-288
99
83
-257
-98
161
-149
-122
350
76
-208
313
463
-110
-6
341
10
95
486
185
82
572
540
117
413
826
401
407
926
653
480
848
693
424
660
730
388
365
601
258
-31
273
35
-475
-25
241
-347
-326
44
-312
-528
-211
-220
-540
-238
54
-471
-496
98
-186
-530
-159
-305
-573
-205
-30
-469
-309
80
-310
-500
-34
-39
-572
-207
77
-439
-451
-135
-345
-582
-103
-122
-569
-127
-28
-486
-417
-183
-331
-422
-206
-317
-505
-234
5
-458
-447
22
-393
-529
15
111
-305
-171
227
-160
-165
124
-285
-336
0
-382
-746
-152
41
-549
-574
-191
-339
-601
-269
-152
-523
-347
-32
-432
-622
-292
-534
129
1847
2679
2917
1909
82
-791
-604
-95
-275
-435
105
34
-540
-192
143
-404
-335
139
-300
-558
100
-27
-577
-30
225
-322
-223
267
8
-328
116
115
-299
107
395
-160
-325
96
-1
-124
303
304
-112
149
510
122
197
740
410
161
688
667
236
588
878
388
601
1160
432
312
1128
913
294
586
732
-81
1
460
-30
-332
31
19
-403
-229
-144
-603
-491
-49
-216
-367
-48
-180
-401
-223
-423
-599
-210
57
-359
-450
-42
-393
-707
-310
-42
-340
-354
41
-285
-520
-142
-257
-565
-218
9
-379
-294
-153
-540
-548
-173
-114
-498
-315
-7
-532
-641
-45
-217
-598
-70
-105
-710
-380
-76
-454
-315
-13
-241
-227
120
31
-247
80
240
-222
-196
154
-215
-597
-159
53
-953
-741
136
-514
-380
90
-359
-544
-120
-123
-588
-392
-122
-544
-702
-280
-248
478
2417
3455
3024
1443
-255
-831
-478
-20
-280
-420
-4
-73
-413
-377
-16
-271
-473
178
-122
-433
97
-128
-490
-25
163
-378
-336
155
-68
-307
67
61
-193
-56
61
-114
-79
369
127
-167
311
236
-179
123
432
121
217
618
348
173
660
762
373
702
850
349
601
1102
632
312
896
931
412
421
534
-10
-32
432
39
-355
-41
51
-394
-374
-191
-394
-247
8
-374
-638
-191
-173
-785
-346
72
-605
-402
140
-136
-531
-345
-87
-455
-264
39
-489
-417
-28
-443
-496
10
-143
-483
-275
-191
-560
-504
26
-223
-562
-89
-55
-596
-469
-161
-526
-422
36
-332
-559
-149
-376
-636
-78
-40
-550
-297
166
-151
-418
-10
66
-245
47
215
-232
-120
200
-316
-673
-188
-220
-670
-235
-54
-539
-426
-91
-515
-669
-155
-220
-584
-413
-307
-765
-690
-158
362
1687
3360
3754
1945
-53
-598
-677
-370
90
-203
-504
-71
23
-498
-360
-37
-506
-384
173
-313
-464
119
-92
-477
-135
99
-317
-298
193
-89
-376
71
123
-230
0
283
-106
-216
238
71
-138
360
348
-60
170
438
207
255
610
479
359
683
682
381
584
803
563
716
1059
648
506
977
802
299
490
543
50
51
271
-37
-536
-233
42
-421
-271
54
-473
-617
-110
-162
-480
-131
-108
-594
-289
-126
-522
-311
-45
-358
-455
-238
-332
-680
-279
153
-424
-398
160
-178
-565
-194
-287
-761
-231
39
-536
-460
-27
-287
-628
-272
-67
-425
-280
-54
-430
-518
-250
-419
-573
-29
-16
-725
-363
5
-573
-430
131
-111
-367
93
179
-321
-113
315
-244
-355
312
-72
-503
-196
-432
-665
-274
-90
-465
-590
-235
-305
-456
-259
-397
-614
-284
46
-484
-775
-318
-139
702
2439
3505
3131
1317
-350
-817
-433
91
-158
-402
-18
-66
-577
-333
-12
-268
-149
71
-97
-318
-155
-50
-446
-143
230
-345
-214
181
-201
-256
99
171
-303
-125
429
42
-110
373
105
-199
335
313
-50
289
463
-35
147
727
379
195
879
826
300
754
964
546
750
1056
745
550
929
785
183
477
690
109
108
480
97
-372
-126
40
-321
-225
30
-290
-304
9
-182
-600
-284
-122
-707
-354
72
-516
-394
99
-229
-587
-195
8
-458
-192
141
-452
-443
130
-176
-570
-194
-121
-599
-461
-19
-326
-610
-150
-123
-440
-82
-90
-527
-394
-86
-344
-407
77
-217
-584
-154
-337
-678
-160
-15
-399
-329
-257
-384
-215
130
131
-189
-12
245
-123
-105
265
-97
-500
-152
-100
-531
-234
-299
-811
-425
56
-224
-610
-186
-92
-587
-520
-191
-383
-516
-306
-620
-190
1527
2749
3198
2882
1062
-734
-581
116
-112
-332
-21
-53
-444
-212
48
-345
-275
-38
-527
-421
187
-9
-444
-63
367
-184
-372
201
6
-346
147
218
-230
-66
189
-189
-174
348
181
-172
161
278
-24
273
504
118
155
647
491
234
708
832
236
439
1086
607
480
1042
796
496
876
938
527
605
787
242
19
553
229
-271
268
168
-591
-334
74
-345
-373
80
-338
-662
-33
6
-474
-295
-49
-384
-496
-48
2
-387
-132
-19
-478
-204
70
-361
-380
46
-127
-507
-155
-51
-498
-292
-16
-314
-283
8
-174
-467
-122
-32
-467
-222
-1
-378
-423
-84
-268
-554
-81
-177
-465
18
130
-363
-548
-2
-25
-430
-39
47
-247
33
426
-37
-342
357
181
-386
-31
-7
-489
-294
-66
-629
-408
160
-289
-527
-210
-265
-532
-276
13
-388
-580
-175
-597
-835
776
2190
2811
3457
2165
-312
-754
-111
-349
-496
67
150
-366
-302
54
-345
-314
165
-99
-258
-33
-50
-260
-40
141
-177
-154
191
43
-348
-10
259
-307
-96
264
-107
98
395
133
-68
281
386
-120
50
591
285
124
433
357
360
674
716
407
512
863
491
450
1096
867
433
840
908
430
584
895
394
197
591
252
-114
271
147
-421
-164
142
-297
-491
34
16
-514
-227
-87
-476
-303
-32
-251
-391
-122
-122
-370
-3
124
-490
-239
253
-227
-404
130
12
-556
-104
35
-586
-433
23
-337
-543
127
21
-449
-77
-20
-508
-210
105
-495
-481
100
-220
-435
-40
-19
-468
-411
10
-448
-530
202
101
-269
164
272
-152
58
371
-34
-95
199
-118
-436
-236
-133
-474
-289
-41
-410
-368
-91
-257
-475
-195
-140
-472
-227
59
-473
-743
-201
210
1171
2793
3314
2011
220
-482
-599
-418
178
-48
-528
3
179
-339
-183
139
-249
-422
190
172
-309
19
228
-397
-268
356
-147
-298
327
234
-207
53
206
-189
46
465
85
-256
224
392
-45
352
619
98
183
401
150
255
748
556
190
514
687
471
526
1018
967
649
1049
854
431
924
726
105
418
644
137
-61
351
244
-379
-126
109
-465
-282
236
-105
-430
-100
-160
-434
-101
-8
-418
-261
197
-345
-649
-72
-181
-484
-58
242
-192
-386
-68
-293
-349
186
-43
-551
-133
-55
-735
-376
238
-323
-475
27
-193
-430
-86
-78
-487
-309
157
-307
-751
-116
-232
-707
-67
95
-459
-327
150
-414
-496
385
50
-261
251
153
-198
-15
215
-113
-332
22
-200
-766
-378
-238
-604
-164
127
-424
-478
45
-394
-755
-73
61
-569
-517
-213
-575
275
2296
2935
2659
1911
108
-884
-451
-12
-207
-400
29
-13
-400
79
199
-564
-369
115
-235
-261
128
6
-304
52
108
-375
-156
291
-99
-171
297
-157
-520
198
478
-99
92
426
-141
-78
436
236
-27
362
569
204
276
616
378
268
726
686
431
738
950
545
528
962
704
706
930
442
295
768
652
74
157
479
114
-207
173
-10
-465
-113
-74
-414
-182
-155
-469
-326
14
-157
-520
-207
-52
-517
-354
-6
-373
-399
108
-56
-439
-90
37
-440
-213
187
-340
-460
40
-126
-505
-383
-137
-352
-333
113
-197
-526
-175
-137
-401
-84
-22
-383
-219
-24
-470
-653
-46
-84
-475
-59
46
-518
-276
101
-312
-408
50
132
-13
207
77
-300
-96
258
-60
-348
3
-43
-512
-421
-165
-448
-352
32
-303
-571
-351
-326
-501
-176
65
-442
-584
-354
-300
723
2494
3413
3199
1662
-246
-701
-267
-44
-293
-336
138
-2
-370
-169
-217
-527
-185
272
-123
-351
113
59
-256
-152
-35
-201
-193
61
-33
-190
169
183
-271
158
280
-308
51
442
1
-121
330
300
6
418
581
95
238
592
298
204
743
777
414
802
864
338
616
1112
767
622
1090
808
286
598
630
44
139
450
-16
-182
228
-44
-490
-179
-76
-476
-291
44
-445
-635
-90
-188
-574
-137
110
-313
-366
-91
-295
-396
17
-41
-506
-322
-90
-612
-492
94
-224
-419
35
-51
-706
-374
106
-545
-406
237
-207
-541
-68
-161
-569
-198
-209
-682
-341
5
-412
-462
-68
-171
-433
-191
-103
-494
-388
-39
-317
-465
66
49
-427
51
188
-419
-43
333
-165
-258
190
11
-614
-360
12
-465
-487
-37
-381
-670
-108
-171
-710
-318
-41
-594
-513
-56
-599
-864
-88
870
1891
3336
3916
1511
-627
-230
-326
-489
134
-12
-466
-143
259
-467
-904
-97
-122
-442
110
38
-324
50
127
-390
-337
188
-70
-266
172
-17
-194
47
-24
-139
-9
262
73
-122
303
201
-188
188
484
99
106
511
385
20
439
773
112
487
1063
549
701
1139
715
520
959
828
461
737
896
182
179
814
180
-215
339
144
-387
-46
188
-361
-369
84
-176
-508
-126
-176
-793
-377
76
-467
-420
134
-155
-390
-2
-182
-619
-359
-43
-321
-234
-34
-282
-306
-57
-159
-682
-284
73
-450
-317
38
-347
-546
-73
-90
-532
-198
28
-540
-469
52
-263
-488
-21
-155
-833
-502
122
-352
-499
55
-176
-529
-50
-114
-550
-53
280
-224
-273
175
-60
-226
177
94
-283
56
181
-493
-401
30
-264
-499
-168
-265
-577
-120
-86
-571
-456
-50
-381
-637
-61
-270
-962
-549
361
1011
2322
3847
3271
925
-428
-482
-538
-192
199
-188
-232
37
-303
-426
-40
-125
-421
-103
151
-224
-242
137
-79
-220
201
-55
-476
12
291
-149
-79
360
24
-210
174
90
-256
196
570
50
46
531
176
-132
452
506
104
491
780
389
270
661
753
588
902
1050
670
750
1005
561
508
1076
795
239
645
684
-69
111
379
-186
-181
284
-237
-588
-9
21
-410
-276
-181
-467
-132
175
-197
-382
-18
-66
-509
-256
170
-269
-555
31
-163
-481
51
-41
-516
-195
107
-441
-432
181
-4
-410
46
26
-670
-239
142
-326
-413
-43
-199
-536
-71
-29
-561
-258
103
-370
-345
156
-338
-643
69
0
-584
-191
-24
-504
-378
122
-65
-263
161
147
-220
118
382
-156
-43
398
-63
-409
23
-21
-603
-377
-70
-560
-562
-20
-225
-501
-35
-102
-651
-153
247
-456
-651
-377
-605
-48
1739
3080
3506
2862
715
-887
-560
26
-271
-477
50
109
-358
-203
82
-197
-287
182
3
-419
3
163
-216
-254
114
-94
-225
300
13
-365
64
277
-196
-141
398
60
-76
434
249
-128
169
366
84
285
629
128
120
757
509
191
684
792
470
679
844
360
404
1182
1006
441
986
1099
354
623
996
417
220
378
158
-220
-33
221
-304
-233
155
-463
-463
180
-342
-583
20
-60
-491
-156
159
-360
-448
109
-98
-566
-89
89
-358
-185
71
-326
-344
91
-198
-466
-47
62
-378
-267
-68
-506
-325
240
-104
-526
-171
-35
-430
-179
106
-603
-563
111
-183
-650
-137
76
-525
-253
124
-346
-355
115
-136
-608
-174
90
-517
-225
352
-149
-284
321
146
-352
32
178
-64
98
180
-258
-376
-15
-315
-570
-130
-114
-673
-430
42
-417
-472
154
-79
-611
-174
-182
-893
-605
555
1541
2721
3970
2729
-115
-562
-38
-587
-272
242
-152
-296
-117
-104
-290
-76
16
-208
-39
168
-143
-280
171
62
-224
94
166
-198
-182
138
20
-126
308
255
-162
88
325
-8
62
531
157
-50
409
309
11
351
622
225
285
695
426
422
865
681
474
798
860
583
738
1056
740
506
865
721
200
444
652
50
-88
344
98
-299
-20
57
-389
-191
198
-305
-368
-62
-516
-463
181
-48
-548
-95
161
-298
-362
49
-121
-387
28
-95
-412
-23
30
-452
-289
168
-236
-376
152
-188
-508
-39
-66
-399
-213
45
-266
-449
9
-113
-548
-151
72
-395
-356
130
-263
-617
-25
-37
-425
-152
25
-370
-422
47
-210
-291
166
7
-302
-3
334
-42
-17
475
-28
-386
217
-31
-626
-240
35
-399
-273
14
-447
-465
5
-115
-466
-182
-20
-474
-449
-104
-424
-755
-203
762
1644
2885
3600
1702
-663
-515
-225
-545
86
63
-391
-115
-124
-347
-95
217
-102
-318
149
115
-436
-46
338
-270
-280
216
-160
-366
196
48
-307
201
416
-70
-31
461
177
-223
319
447
-150
103
448
-32
195
681
116
123
778
631
316
515
612
463
644
874
693
560
887
921
506
657
936
470
175
566
292
-88
262
1
-275
31
-55
-320
-213
87
-217
-455
-152
-214
-396
-21
107
-643
-459
296
-174
-611
-69
86
-412
-161
154
-360
-260
99
-286
-500
-222
-87
-294
-114
102
-362
-418
74
-164
-518
-120
-33
-451
-316
-3
-383
-439
-28
-212
-341
11
-248
-593
-229
34
-405
-552
28
-216
-575
81
117
-365
-68
155
-106
-64
363
120
-210
193
-30
-645
-371
-78
-446
-319
120
-281
-649
-234
-188
-535
-264
-20
-424
-434
95
-276
-788
-538
-404
83
1282
2822
3128
1753
331
-738
-821
-83
-5
-448
-175
169
-430
-360
180
-335
-532
-16
-30
-334
-113
204
-170
-675
-97
132
-418
84
250
-396
-42
300
-282
-207
343
59
-156
253
245
-36
0
44
-115
119
599
300
84
562
594
241
296
612
462
437
923
732
393
1033
952
200
609
743
390
595
856
393
-53
334
205
-389
-152
187
-251
-392
90
-141
-737
-387
-155
-567
-264
158
-272
-398
-42
-310
-564
-132
-84
-529
-229
117
-442
-512
-174
-215
-315
-106
42
-452
-408
-48
-343
-379
-19
-205
-511
-187
-159
-559
-240
80
-463
-414
35
-356
-528
-54
-106
-592
-341
-15
-443
-569
-78
-203
-593
-138
78
-530
-369
244
-183
-427
88
97
-172
18
162
-207
-222
128
-256
-437
-18
-330
-591
-71
-130
-617
-290
46
-445
-556
-120
-315
-572
-102
-121
-715
-665
-209
367
1608
3016
3396
2105
204
-639
-663
-362
-21
-208
-315
154
-169
-717
22
202
-474
-238
179
-300
-441
128
-100
-536
-69
75
-218
15
199
-302
-390
356
99
-422
182
326
-200
115
429
-153
-118
456
249
-58
309
360
-28
336
824
411
325
845
631
308
786
895
491
722
1131
691
446
1060
771
240
571
560
30
-62
332
-55
-284
214
-77
-337
52
-116
-549
-308
-26
-317
-393
-102
-221
-419
-164
-90
-492
-330
29
-583
-606
120
-155
-497
15
-98
-575
-168
80
-356
-410
25
-110
-585
-337
-46
-502
-434
20
-404
-782
-117
-27
-542
-174
52
-441
-317
49
-552
-680
-63
-218
-622
-200
-5
-501
-458
-182
-472
-614
-91
-118
-445
48
14
-319
-5
96
-194
-246
54
-78
-369
-134
-40
-507
-507
-33
-433
-803
-266
-70
-406
-268
-122
-644
-564
51
-369
-721
-312
-538
-433
1393
2977
3372
3018
1145
-780
-837
-10
-138
-464
40
39
-501
-342
4
-279
-365
94
14
-379
-150
5
-424
-295
214
-124
-352
78
-63
-480
18
297
-207
-47
385
-66
-363
145
184
-118
176
365
28
28
327
266
102
346
531
256
506
795
324
413
886
538
474
1023
831
535
1007
938
287
381
759
428
8
217
238
-207
-76
143
-386
-336
60
-356
-485
-178
-233
-396
-201
-22
-406
-433
-5
-447
-696
130
-8
-707
-238
38
-466
-344
-21
-380
-475
-16
-106
-551
-195
24
-380
-308
-176
-396
-326
33
-146
-532
-300
-66
-619
-625
120
-223
-564
-47
-113
-590
-297
-73
-555
-414
94
-300
-511
-23
-220
-585
-219
31
-459
-487
85
-242
-360
233
-28
-337
73
118
-196
-62
169
-364
-765
-119
-84
-598
-264
-29
-429
-543
-122
-399
-754
-44
-212
-805
-139
-251
-1082
-343
1308
2255
3183
3836
1820
-588
-522
-126
-406
-303
82
-200
-470
-47
-51
-440
-248
48
-351
-257
295
-107
-397
73
-7
-335
-15
182
-131
-142
182
-36
-245
159
177
-145
68
298
-140
-44
406
131
20
400
428
-74
182
584
229
377
860
582
349
800
787
389
659
1030
669
625
926
752
534
775
844
279
394
684
-51
-203
303
-113
-396
143
24
-543
-293
-104
-527
-355
189
-153
-491
67
33
-533
-296
-9
-336
-386
31
-236
-470
56
-22
-510
-270
78
-430
-381
211
-403
-581
82
-102
-584
-146
187
-435
-424
145
-226
-597
-40
-44
-562
-235
92
-453
-539
22
-207
-503
-62
-75
-554
-269
39
-375
-414
-6
-231
-579
-91
-71
-487
-45
132
-271
-211
99
-64
-222
189
223
-249
-139
130
-372
-437
184
-113
-576
-198
-171
-587
-233
-31
-713
-620
153
-7
-386
-13
-261
-939
-232
1217
2237
3453
3875
1652
-529
-411
-255
-679
-86
398
-208
-198
135
-250
-379
155
199
-356
-185
281
-161
-345
227
-22
-349
208
82
-359
117
298
-169
-128
331
133
-167
257
337
-70
136
379
-34
119
567
11
-106
693
647
216
488
743
406
409
897
738
492
887
997
605
767
1117
647
639
1079
408
-11
551
548
37
87
373
-66
-439
24
-84
-405
62
-38
-513
-217
121
-413
-507
212
2
-445
14
107
-441
-198
78
-448
-391
143
-16
-345
2
158
-321
-88
296
-301
-498
177
36
-524
-17
92
-473
25
316
-367
-303
182
-83
-303
130
133
-338
-121
131
-235
-222
158
10
-276
55
175
-258
-109
204
-133
-293
105
27
-317
237
451
-182
10
577
208
133
640
322
-134
247
354
-226
-29
351
-227
-234
387
119
-227
116
234
-258
-180
319
-82
-197
175
-219
-545
527
1935
2709
3915
3595
810
-505
111
125
-305
181
547
115
177
457
35
-107
383
286
-26
287
518
5
-65
505
349
34
340
265
-17
444
591
243
453
675
235
122
614
523
202
587
779
108
174
922
509
392
1059
710
329
913
1114
625
778
1230
985
883
1264
1062
730
1266
1425
936
962
1070
733
629
922
593
144
512
525
-55
-113
316
245
-27
350
309
-242
128
381
-220
-25
424
-37
-222
170
87
-167
222
408
-149
-78
427
91
-45
336
30
-187
225
192
-167
32
387
-2
-267
250
177
-274
131
352
-117
-121
76
-188
-81
331
186
-185
-7
261
-278
-253
396
23
-227
190
40
-155
166
149
-131
49
435
129
-5
523
287
-35
399
490
-132
-181
190
-142
-241
230
161
-486
-159
245
-286
-96
311
-102
-212
258
135
-318
-234
-78
114
1206
2836
3371
2547
1067
-375
-619
159
301
-242
105
514
-20
-90
307
161
-40
118
221
-1
73
376
-40
-235
405
396
-176
117
518
55
14
470
323
124
389
274
-13
433
635
168
211
670
334
100
677
589
179
666
919
250
465
1046
618
565
1099
1128
774
915
1172
742
728
1250
863
460
894
717
224
455
447
-67
-32
332
8
-165
200
14
-262
70
227
-223
-335
182
-142
-470
110
106
-244
-5
158
-171
-46
349
-96
-367
261
70
-334
138
83
-368
-174
278
-47
-378
131
-27
-439
64
-11
-506
-28
412
-34
-281
3
-7
-326
-175
24
-380
-209
294
-177
-447
156
67
-377
38
116
-338
-97
330
48
-235
191
221
-213
84
315
-156
-173
193
-225
-482
11
-62
-365
-138
76
-194
-462
-69
-144
-413
113
-98
-780
-342
493
956
2054
3365
2486
225
-515
-484
-514
73
195
-286
-115
199
-153
-209
139
17
-301
23
291
-361
-307
415
-3
-321
312
285
-234
75
335
-91
24
459
95
-100
301
26
-251
351
554
83
173
520
228
51
513
488
138
551
788
423
580
790
294
336
1027
989
619
839
1135
659
267
913
769
218
690
529
-41
257
411
-259
-290
274
-188
-443
157
41
-376
-18
47
-677
-422
318
-217
-515
132
187
-438
-353
99
-357
-332
232
-104
-382
120
100
-601
-257
252
-286
-293
165
-126
-367
67
-11
-428
-170
-83
-497
-314
152
-154
-495
77
75
-854
-602
105
-145
-222
133
-122
-403
1
-125
-538
-104
36
-243
-47
200
-88
-331
152
161
-231
66
122
-410
-267
69
-650
-689
140
-83
-562
-191
17
-549
-433
-77
-571
-512
-50
-296
-244
1184
2511
2958
2829
1077
-824
-811
-61
-120
-414
-51
-29
-415
-277
84
-95
-314
110
71
-335
-112
-103
-400
-110
293
-58
-278
173
224
-161
-172
158
-125
-241
313
136
-143
309
337
-73
135
283
-154
16
630
386
24
598
734
90
264
680
528
597
1041
855
412
858
1016
530
801
1053
407
321
688
243
53
449
275
-118
44
163
-237
-230
-48
-404
-464
36
9
-414
35
-102
-907
-427
146
-212
-450
16
-35
-598
-278
-24
-459
-200
167
-173
-381
-34
-130
-743
-265
162
-334
-358
74
-108
-670
-330
-68
-455
-149
83
-374
-402
82
-160
-728
-313
-90
-447
-173
69
-294
-371
-142
-475
-656
-48
-13
-456
-57
135
-535
-393
242
-144
-420
248
217
-517
-218
243
-302
-430
-22
-172
-585
-305
-81
-601
-372
-26
-507
-484
60
-335
-901
-351
-159
-759
-486
529
1400
2402
3517
2634
185
-513
-218
-456
-436
30
-205
-411
82
-176
-484
24
-43
-510
-92
191
-320
-401
122
-83
-302
288
-127
-693
-100
191
-250
-253
408
14
-511
279
64
-498
199
418
-26
37
404
164
-48
229
282
177
416
631
496
372
394
434
435
814
969
515
727
1191
648
276
765
612
177
516
425
-33
3
-12
-290
-343
-10
-132
-500
-97
-1
-615
-426
-81
-469
-413
21
-252
-584
-75
-111
-922
-555
54
-393
-404
56
-210
-583
-143
7
-710
-503
54
-444
-460
94
-182
-634
-351
-173
-513
-275
91
-490
-730
-167
-317
-689
-107
-39
-524
-158
-249
-780
-422
-60
-295
-470
-295
-369
-618
-319
19
-334
-427
18
-210
-452
-79
-85
-436
-200
212
-224
-422
41
-192
-552
-185
-94
-530
-449
-9
-468
-803
-160
-273
-678
-213
-75
-544
-343
-121
-869
-1029
-333
375
1606
3173
3810
2193
22
-524
-668
-479
206
-124
-698
-171
-65
-597
-255
119
-317
-375
94
-175
-630
-156
50
-424
-126
255
-260
-321
57
-150
-314
-41
58
-139
59
290
-101
-136
187
-121
-234
275
363
68
222
436
29
8
686
589
172
618
690
311
677
1042
687
604
1045
811
487
770
716
355
422
559
155
6
464
-66
-781
-33
240
-418
-215
101
-471
-611
-102
-234
-530
-69
25
-516
-409
-80
-350
-379
-25
-294
-553
-111
-135
-589
-305
68
-431
-572
50
-170
-619
-137
-130
-631
-251
56
-399
-443
-64
-366
-663
-122
-141
-647
-435
-56
-333
-558
-136
-209
-582
-297
-336
-685
-250
35
-482
-468
45
-322
-588
-113
-196
-593
-257
201
-254
-502
165
-71
-556
52
88
-367
-167
182
-271
-614
-151
-227
-615
-413
-229
-564
-482
-213
-554
-524
-97
-253
-619
-167
-312
-1174
-491
975
1813
2961
3977
2218
-418
-673
-282
-532
-297
100
-288
-427
17
-127
-502
-220
-15
-455
-290
154
-259
-322
158
-165
-503
-47
51
-279
-179
148
-129
-329
177
158
-235
5
127
-274
-85
457
-98
-194
545
119
-168
415
568
144
351
772
264
227
814
642
368
788
932
540
545
944
859
574
728
533
63
327
481
-122
-67
267
-258
-494
1
-129
-528
-178
-52
-540
-434
-78
-403
-555
-262
-380
-535
-115
-144
-587
-294
-61
-501
-517
-86
-232
-536
-133
-8
-409
-259
-39
-463
-592
-60
-163
-589
-199
-142
-687
-407
86
-321
-440
-29
-313
-736
-338
-52
-467
-344
107
-451
-761
-130
-194
-539
-147
-92
-538
-308
-82
-569
-556
19
-175
-516
-27
104
-394
-346
24
-23
-134
74
71
-435
-344
-2
-526
-482
79
-357
-512
-46
-282
-604
-160
-90
-650
-453
-61
-383
-486
-319
-679
-950
-177
1178
2243
3433
3599
1118
-820
-372
-270
-564
-108
-25
-468
-471
-57
-191
-310
144
-95
-475
-38
61
-397
-144
221
-234
-390
119
-96
-518
-16
191
-236
-79
340
-125
-261
230
-10
-167
209
198
-103
65
417
23
-82
529
411
139
536
761
441
357
607
523
504
907
788
548
942
809
360
597
838
501
304
622
311
-65
284
-6
-593
-275
179
-279
-513
-13
-122
-480
-241
-269
-665
-311
139
-358
-579
-92
-114
-384
-169
-26
-312
-208
-102
-598
-507
20
-204
-457
-98
-54
-408
-253
-8
-344
-485
-49
-132
-495
-146
-220
-753
-399
150
-247
-539
15
51
-600
-491
-60
-395
-426
-9
-339
-465
-183
-489
-543
-170
-110
-316
-213
-19
-300
-324
76
-53
-284
159
242
-297
-246
56
-433
-713
-2
-63
-675
-212
3
-608
-492
18
-386
-627
14
-145
-735
-455
-332
-743
-242
1282
2124
2829
3251
1153
-1003
-572
-49
-332
-146
51
-364
-513
-55
-94
-414
-208
-53
-400
-245
253
-110
-371
87
-1
-377
59
113
-374
-47
181
-304
-226
336
148
-182
92
49
-240
31
432
97
-93
357
205
-98
256
498
169
355
817
343
109
727
754
328
657
963
536
555
978
648
462
802
542
-27
250
445
-177
-63
286
-148
-236
80
-135
-498
-158
43
-572
-353
127
-491
-621
4
-122
-592
-72
122
-666
-428
197
-242
-514
-27
18
-366
-196
-81
-397
-309
-1
-268
-366
2
-304
-524
-87
-190
-512
-280
-100
-355
-389
35
-128
-562
-204
-22
-520
-395
44
-320
-505
-9
-156
-622
-169
3
-596
-418
221
-188
-489
237
126
-410
71
193
-378
-156
252
-278
-553
-40
-130
-560
-222
-139
-629
-458
-82
-404
-658
-125
-96
-541
-223
-326
-995
-435
950
1745
2574
3181
1691
-589
-732
-173
-483
-277
117
-390
-563
21
-93
-426
13
122
-422
-317
125
-190
-390
157
-51
-605
12
240
-345
-152
306
-101
-342
85
111
-132
47
234
-58
-54
345
96
-71
320
302
23
151
448
216
269
721
461
225
648
546
279
796
942
592
722
1062
605
311
848
589
72
426
405
-110
-112
73
-218
-436
-28
-40
-490
-137
-45
-664
-282
190
-387
-528
-33
-179
-556
-244
-120
-560
-367
61
-350
-446
27
-285
-621
-248
-138
-443
-280
88
-233
-490
-36
-149
-705
-274
12
-505
-406
113
-458
-813
-26
-94
-584
-220
-23
-451
-508
-91
-345
-672
-22
-79
-613
-220
-1
-357
-575
-207
-208
-376
166
-61
-577
-50
303
-166
-163
330
-135
-553
-47
-187
-561
-87
-22
-646
-504
-103
-439
-521
-82
-252
-643
-257
22
-440
-541
-284
-498
255
2068
3028
3184
2289
249
-912
-512
-143
-447
-317
135
-164
-464
-22
-37
-431
-117
161
-262
-332
107
51
-346
-80
167
-278
-256
27
-99
-208
60
98
-219
62
281
-200
-77
311
-13
-31
394
322
-41
268
580
8
115
601
279
421
806
532
233
670
936
411
573
985
675
636
868
681
403
568
678
188
102
488
84
-239
141
-61
-367
-101
-143
-470
-288
74
-259
-598
-94
-202
-750
-306
-177
-548
-335
17
-297
-524
-27
-106
-508
-92
66
-592
-503
18
-359
-534
-97
-223
-553
-246
-69
-418
-348
-158
-473
-422
17
-134
-537
-217
-144
-746
-480
7
-343
-522
-140
-281
-589
-145
-86
-544
-362
57
-374
-630
-69
-239
-642
-185
147
-254
-203
304
-201
-566
293
215
-618
-120
45
-708
-402
7
-587
-625
-76
-225
-594
-268
-130
-550
-485
-241
-427
-558
-448
-551
-95
1544
3093
3508
2609
755
-639
-651
-63
-141
-550
-78
140
-424
-387
-63
-277
-420
-9
42
-411
-171
109
-283
-268
199
-38
-324
154
-3
-366
48
152
-240
-224
175
5
-208
325
228
-220
253
428
-71
95
553
48
-9
757
484
34
508
786
450
505
945
701
566
1075
784
417
840
929
503
338
718
447
0
443
153
-323
-71
92
-134
-310
-61
-261
-523
-118
-122
-490
-178
-75
-508
-500
-31
-37
-563
-311
-227
-631
-224
58
-390
-432
-9
-254
-439
-40
-172
-560
-240
-4
-504
-388
-5
-417
-501
-143
-185
-463
-287
-27
-374
-403
-103
-374
-476
-68
-118
-498
-224
-15
-432
-435
-192
-405
-472
-26
-177
-562
-104
34
-505
-333
200
-145
-437
140
170
-278
0
152
-325
-241
168
-221
-536
-251
-253
-675
-399
-96
-504
-318
10
-348
-524
-140
-167
-539
-234
-149
-921
-601
1115
2102
2863
3692
1940
-625
-625
-28
-284
-305
44
-16
-477
-218
18
-331
-130
132
-167
-211
141
-126
-406
133
35
-502
-103
192
-282
-332
122
-27
-285
214
293
-191
186
439
-48
41
343
19
-118
365
356
-143
102
570
235
289
807
477
346
802
756
457
730
1088
620
586
1154
681
353
877
613
47
402
512
-15
-105
212
76
-313
39
-11
-666
-212
146
-513
-376
53
-379
-480
-72
-137
-385
-257
-140
-394
-326
75
-236
-409
28
-93
-441
-281
-42
-478
-605
-5
-128
-394
-146
-86
-466
-358
63
-350
-436
-94
-380
-400
-68
-174
-481
-356
-35
-380
-603
-158
-188
-452
-195
-233
-527
-193
-1
-446
-387
27
-289
-539
-78
-54
-294
-51
-77
-371
-143
263
-38
-360
17
32
-299
-68
-100
-500
-469
-189
-291
-470
-91
-194
-573
-222
-116
-590
-378
128
-329
-642
-421
-538
-41
1644
3108
3584
2593
538
-653
-624
-93
-83
-407
-6
159
-373
-288
106
-331
-439
136
23
-290
9
283
-236
-355
113
-289
-388
255
249
-253
-79
356
-104
-168
401
58
-191
316
251
-154
67
312
39
98
601
328
130
684
517
53
434
826
528
540
933
641
409
966
1021
407
728
1090
474
387
705
467
331
382
127
-66
-7
-83
-384
-224
108
-347
-470
-16
-169
-533
-209
55
-333
-354
-159
-426
-482
40
-25
-553
-228
41
-534
-347
198
-228
-444
24
-99
-386
-218
-335
-527
-382
-123
-262
-465
-33
-125
-707
-264
-45
-494
-402
-55
-269
-437
-34
-267
-631
-257
-192
-509
-397
-43
-267
-526
-125
-169
-631
-254
71
-451
-460
147
-253
-726
-30
160
-185
-45
108
-160
-186
191
-216
-584
-136
-193
-609
-418
-85
-557
-845
-181
-244
-697
-240
-48
-523
-410
-159
-757
-891
111
1060
2010
3558
3540
989
-659
-508
-593
-488
130
-86
-655
-180
-4
-562
-171
94
-615
-421
189
-266
-453
60
-82
-475
-90
76
-321
-153
182
-206
-405
-4
-23
-215
40
233
-39
-75
259
-76
-278
344
294
-37
193
423
152
102
589
362
240
830
828
280
510
870
458
564
993
689
539
845
624
259
510
565
-28
-32
307
-83
-361
7
-85
-551
-278
-26
-435
-415
33
-211
-500
-123
-196
-602
-255
-13
-476
-268
83
-574
-561
-59
-194
-280
-150
-109
-358
-339
12
-290
-517
-36
-99
-704
-434
116
-398
-416
13
-363
-575
-279
-112
-426
-267
-7
-425
-371
-59
-331
-542
-303
-280
-494
-189
-99
-454
-314
-76
-231
-447
-79
-87
-583
-66
221
-316
-188
240
-141
-434
82
86
-498
-226
87
-686
-641
19
-464
-568
51
-385
-734
-184
-171
-482
-313
49
-361
-892
-422
443
1256
2677
3778
2301
-57
-682
-581
-456
-27
-75
-451
-238
40
-295
-348
78
-215
-480
65
74
-343
-125
83
-222
-137
199
-132
-360
144
137
-376
-99
286
-74
-235
211
95
-162
298
206
-234
38
315
17
112
587
215
124
701
523
104
534
685
214
561
1071
697
439
754
739
559
796
847
325
253
615
211
-103
308
72
-337
-75
-118
-501
-316
121
-262
-519
-53
-162
-601
-264
37
-402
-352
23
-249
-470
-245
-192
-480
-281
86
-308
-322
123
-239
-524
-92
-106
-495
-233
52
-400
-546
-22
-231
-512
-31
-65
-530
-299
53
-336
-339
46
-291
-449
27
-151
-724
-122
123
-553
-345
-25
-287
-385
-51
-133
-416
38
233
-288
-221
325
-27
-356
198
121
-500
-247
9
-395
-370
-86
-296
-480
-167
-183
-510
-231
33
-423
-545
-111
-348
-694
-316
361
1203
2454
3391
2119
127
-411
-778
-786
14
85
-470
-134
209
-372
-329
146
-159
-257
178
-75
-371
22
182
-295
-277
318
-168
-546
221
368
-128
58
356
-99
-90
435
16
-227
303
172
-166
171
409
79
104
325
186
199
546
563
249
544
840
317
331
973
732
436
945
955
339
531
923
398
281
657
327
-152
-62
26
-205
-37
135
-268
-274
48
-447
-712
-69
-111
-499
-129
123
-351
-570
-240
-292
-373
-35
-56
-436
-213
181
-409
-655
21
-169
-459
21
-33
-445
-314
-153
-318
-260
-28
-250
-476
-66
-88
-554
-170
-102
-741
-400
103
-250
-420
-62
-116
-561
-273
81
-521
-546
-1
-264
-394
90
79
-632
-403
350
-72
-172
366
-126
-446
191
-135
-726
-222
-17
-473
-447
23
-210
-690
-355
-374
-675
-166
22
-430
-462
-224
-542
-178
1423
2070
2579
2954
1065
-794
-607
-41
-216
-475
-245
-99
-436
-145
120
-497
-362
166
-132
-334
45
79
-323
-97
217
-310
-438
210
-12
-360
155
129
-269
108
305
-341
-287
385
99
-161
352
294
-66
219
407
73
147
638
415
182
650
612
-2
362
964
524
592
1109
758
611
1055
722
257
603
727
187
153
482
-93
-478
122
156
-380
-146
130
-318
-389
-21
-372
-563
-13
-73
-504
-269
49
-371
-446
-35
-659
-740
119
-62
-509
-202
-10
-446
-472
51
-204
-490
-86
-266
-499
-92
1
-465
-466
-47
-229
-697
-338
-1
-481
-376
-91
-478
-478
36
-210
-891
-468
-21
-339
-189
20
-376
-378
18
-347
-780
-199
54
-369
-116
162
-163
-328
-41
-59
-302
55
86
-402
-241
-100
-492
-404
-105
-457
-586
-123
-183
-485
-380
-484
-641
-288
53
-344
-788
-180
574
1208
2775
3841
2257
71
-326
-419
-519
-93
-115
-458
-239
149
-382
-628
140
-54
-465
103
43
-442
-23
155
-357
-257
174
-28
-311
88
43
-548
-134
255
-292
-179
314
-17
-182
296
227
-190
180
449
-53
7
543
301
36
528
478
121
623
893
394
450
986
715
337
712
945
631
711
841
355
260
652
287
-247
142
87
-404
-69
188
-327
-437
-22
-366
-605
-37
-65
-521
-193
75
-452
-545
-64
-261
-521
-102
13
-385
-572
-473
-287
10
79
-243
-471
-105
0
-449
-350
-129
-466
-442
-12
-296
-463
46
-334
-933
-419
-38
-331
-255
70
-235
-519
-141
-170
-604
-322
30
-388
-469
-122
-621
-838
-17
82
-472
-213
85
-278
-229
109
-259
-419
199
122
-300
40
-99
-610
-312
-66
-392
-548
-98
-176
-737
-356
-7
-498
-509
-27
-291
-471
-53
-381
-983
-670
-121
461
1819
3355
3485
1729
162
-413
-783
-247
175
-304
-368
68
-107
-508
-49
20
-517
-217
100
-362
-351
126
-150
-539
-142
166
-219
-40
223
-310
-190
279
47
-135
181
78
-318
9
93
-281
122
498
186
-15
280
468
155
234
599
293
358
877
528
324
826
872
445
582
948
695
675
1084
631
3
550
634
-13
132
352
-282
-361
188
-232
-451
-28
-163
-513
-260
-63
-509
-515
-45
-223
-512
-193
-208
-530
-227
15
-457
-512
-88
-271
-483
-106
-88
-411
-336
-295
-345
-287
-172
-307
-443
-302
-338
-465
-248
-95
-573
-542
131
-256
-683
-104
-146
-634
-252
-167
-723
-413
27
-315
-525
-116
-140
-720
-487
-112
-520
-488
-17
-162
-445
-63
24
-533
-57
371
-278
-278
127
-20
-345
-210
-130
-599
-481
-70
-542
-543
40
-382
-717
-176
-185
-651
-349
-92
-469
-594
-572
-574
341
1983
2981
3414
2475
330
-685
-641
-208
-94
-379
-1
-39
-625
-285
-32
-566
-309
302
-94
-509
20
100
-479
-73
196
-451
-455
81
-7
-214
94
122
-243
-63
180
-233
-178
315
17
-246
331
332
-259
179
587
-3
54
699
393
107
650
649
232
479
796
503
573
992
693
438
908
865
335
560
765
271
146
330
-50
-236
4
-47
-479
-360
117
-474
-619
51
-249
-592
-340
-177
-377
-239
69
-423
-567
-7
-139
-496
-77
-68
-509
-133
10
-495
-368
-27
-386
-562
-112
-80
-353
-166
-43
-527
-485
27
-260
-478
-57
-49
-638
-477
24
-456
-602
-20
-268
-623
-101
-167
-634
-274
101
-395
-643
-85
-113
-495
-259
-127
-540
-436
-115
-302
-282
166
85
-357
3
145
-319
-137
174
-316
-491
-19
-282
-647
-175
-63
-605
-356
89
-410
-531
4
-392
-705
-113
-240
-702
-581
-384
-72
1214
2939
3635
2691
790
-528
-728
-237
93
-319
-299
209
-133
-401
-46
-167
-418
-195
92
-136
-243
114
-68
-301
-14
92
-165
-138
210
-115
-349
129
29
-236
179
376
-275
-247
458
96
-63
473
263
-95
305
424
-12
262
806
266
116
926
637
278
784
733
438
820
1195
658
360
976
867
370
635
652
116
161
354
-125
-199
130
-145
-385
-144
-122
-465
-378
-60
-392
-377
184
-114
-508
-97
-100
-497
-220
101
-345
-518
25
-153
-571
-146
-212
-556
-189
-49
-303
-272
144
-57
-515
-167
-96
-435
-177
57
-446
-446
-25
-353
-573
-153
-113
-461
-321
-147
-385
-350
30
-143
-474
-59
15
-528
-268
59
-464
-509
80
5
-566
-333
39
-288
-129
142
-111
-36
194
-2
-232
98
184
-330
-226
4
-467
-406
11
-290
-591
-160
-95
-694
-289
158
-309
-327
6
-247
-656
-442
105
826
2223
3762
3147
767
-422
-559
-586
-9
123
-446
-108
252
-298
-295
225
28
-442
-142
152
-192
-54
303
-91
-326
115
72
-242
194
365
-216
-120
258
4
-25
289
198
-59
275
392
60
31
258
239
164
662
537
126
541
620
298
518
895
504
368
994
759
299
901
1162
592
731
1032
542
390
661
425
-55
288
429
-298
-119
277
-239
-383
65
-90
-524
-239
62
-339
-354
35
-242
-283
159
-148
-548
-160
-9
-484
-385
168
-148
-340
105
-137
-425
-12
61
-381
-335
2
-161
-286
81
-33
-729
-404
120
-316
-194
122
-272
-414
-107
-224
-537
-187
-18
-377
-142
228
-345
-597
115
-67
-548
-106
-70
-451
-248
198
-95
-234
293
-28
-271
100
-51
-219
-41
137
-245
-372
75
-232
-510
-71
-146
-563
-208
8
-432
-498
-98
-192
-446
-122
-237
-712
-4
1396
2213
3105
2965
675
-878
-574
-130
-299
-301
208
-185
-499
139
47
-272
97
149
-317
-183
117
-183
-288
157
138
-183
74
116
-281
-8
406
42
-152
199
194
-47
249
321
-83
119
460
21
-69
562
437
-79
290
660
288
417
527
349
654
767
667
510
797
988
548
717
1003
578
529
937
670
194
514
475
-197
-107
115
-154
-186
128
-3
-287
-79
-144
-482
-162
214
-227
-423
186
-7
-526
-102
-46
-431
-114
219
-147
-349
-69
-53
-312
16
117
-288
-58
-42
-424
-359
68
31
-381
-80
77
-474
-276
209
-179
-415
111
135
-495
-159
97
-451
-284
149
-232
-556
-51
-58
-579
-223
201
-325
-323
291
-132
-378
176
39
-244
146
234
-233
-197
178
-142
-384
20
-131
-537
-108
96
-383
-276
87
-409
-653
-16
-93
-530
-57
-12
-802
-682
240
882
1867
3327
3139
1036
-351
-428
-489
-413
54
-76
-293
181
109
-512
-257
-69
-499
-95
403
-47
-208
339
-44
-538
121
273
-242
-38
360
178
-189
-259
-6
-82
186
429
-83
39
327
-84
-148
486
523
52
391
598
279
391
470
263
315
765
795
319
650
932
461
668
1139
788
503
877
621
46
530
707
69
124
419
-45
-268
61
-231
-554
-10
146
-381
-327
69
-128
-688
-344
-63
-532
-115
109
-457
-226
-51
-478
-389
-92
-55
-301
-92
97
-461
-419
-80
-338
-342
52
-86
-463
-122
197
-476
-713
-118
-250
-406
58
-43
-479
-210
53
-510
-531
73
-308
-510
80
-26
-498
-248
-207
-673
-296
106
-268
-541
-16
141
-359
-37
181
-173
57
189
-321
-321
123
-22
-394
-130
14
-602
-595
42
-220
-453
-10
-142
-398
-368
-423
-393
-225
36
-390
-752
-181
679
1572
2690
3561
2075
-85
-267
-327
-589
-25
134
-460
-261
157
-233
-243
125
-193
-360
133
129
-300
-59
161
-111
-266
-49
66
-280
149
233
-303
61
252
-49
25
380
96
-223
227
323
-48
276
520
31
236
781
195
-79
654
651
251
664
882
469
583
790
559
655
1082
986
557
774
931
361
368
734
224
-47
362
185
-255
-13
152
-372
-382
201
-140
-549
-70
24
-364
-198
-136
-558
-504
-181
-228
-259
39
-253
-596
-35
125
-414
-298
132
-98
-341
-245
-172
-441
-383
-13
-324
-346
80
-254
-591
-68
-93
-500
-115
81
-337
-406
-50
-244
-543
-161
-178
-600
-250
55
-386
-424
76
-406
-846
39
148
-441
-207
26
-438
-511
74
-61
-344
126
116
-240
51
101
-355
-218
190
-201
-465
6
-120
-656
-353
-20
-418
-434
-73
-319
-550
-226
-224
-507
-196
-86
-850
-851
139
894
1997
3582
3759
1555
-312
-413
-500
-427
-16
-117
-400
-138
-32
-383
-172
63
-270
-323
123
-78
-403
23
-27
-370
-32
211
-213
-317
49
-78
-140
305
47
-321
121
277
-34
-4
146
26
-4
371
331
-83
303
697
243
59
535
428
307
790
725
338
635
1081
645
456
987
796
401
908
934
217
440
613
-27
-112
374
80
-224
172
-116
-541
-229
-2
-435
-441
16
-293
-554
-214
-183
-483
-202
-21
-463
-352
67
-303
-629
-96
-41
-473
-124
64
-552
-334
150
-444
-693
-89
22
-493
-305
-14
-350
-400
-91
-219
-514
-226
-176
-570
-277
3
-487
-469
-13
-357
-724
-212
-114
-539
-311
-4
-404
-552
-45
-182
-571
-153
-44
-517
-191
129
-673
-617
176
-62
-323
164
188
-272
-132
34
-306
-229
94
-301
-535
2
-56
-669
-353
-101
-554
-490
16
-268
-739
-260
-22
-606
-690
-312
-203
957
2640
3511
3182
1402
-245
-737
-361
59
-253
-383
-15
-212
-426
7
-41
-493
-150
169
-304
-265
268
-197
-561
-47
-7
-318
-63
210
-218
-246
244
6
-296
202
271
-310
-7
399
-107
-186
370
250
-119
360
411
-92
326
613
205
369
815
547
363
777
694
431
930
1083
493
617
1155
693
180
681
699
26
181
492
-9
-222
125
-96
-390
82
-53
-630
-256
-14
-432
-421
32
-214
-580
-211
-159
-526
-211
-158
-634
-211
216
-154
-465
-149
-84
-436
-216
-29
-443
-479
-61
-209
-468
-336
-153
-398
-351
172
-230
-501
-65
-218
-452
-151
-226
-517
-299
-80
-369
-490
-56
-195
-585
-89
-9
-697
-400
89
-411
-419
125
-297
-754
-192
-42
-421
-147
126
-325
-311
211
21
-206
110
25
-237
-70
96
-333
-606
76
-233
-765
-156
-224
-593
-215
71
-405
-442
17
-317
-602
-100
-190
-910
-661
294
1156
2357
3739
3247
623
-629
-307
-379
-140
137
-246
-317
174
-97
-441
59
-35
-411
-133
65
-175
-343
71
97
-299
121
159
-394
6
353
-99
-155
235
28
-379
94
388
23
10
222
53
20
420
229
-106
493
643
157
294
596
527
448
740
662
387
796
888
497
784
997
588
624
941
657
491
769
459
-40
199
343
-170
-181
249
-71
-492
-189
4
-439
-360
47
-262
-422
-149
-291
-526
-132
-14
-474
-322
157
-218
-518
-77
-124
-408
-46
26
-435
-296
76
-411
-680
-90
-281
-570
-18
73
-426
-333
-153
-433
-370
-155
-242
-410
-104
-50
-562
-393
79
-340
-762
-194
-147
-540
-92
-124
-630
-563
-166
-304
-478
-18
-118
-368
-141
-188
-396
-83
169
-300
-433
74
67
-309
98
177
-524
-269
128
-401
-444
37
-218
-661
-302
-57
-443
-269
-80
-669
-631
86
-130
-618
-333
-436
-605
600
2203
2946
3149
1982
-229
-926
-337
-139
-361
-181
165
-254
-410
86
-109
-443
-61
119
-266
-145
94
-261
-189
147
-209
-404
197
262
-278
56
260
-349
-186
361
114
-193
248
405
-164
18
539
137
25
454
244
-33
420
618
229
414
790
521
281
738
846
354
734
955
582
889
1082
649
412
759
575
-36
324
562
45
-99
83
-118
-188
94
-147
-372
-42
-78
-377
-227
-34
-433
-532
185
-39
-611
-17
112
-443
-210
163
-288
-463
120
-98
-613
-60
133
-367
-257
47
-353
-430
96
-41
-450
-145
32
-437
-299
117
-281
-506
-75
-232
-557
-84
12
-546
-369
21
-364
-509
38
-33
-520
-173
-47
-535
-274
144
-394
-642
-9
87
-315
-44
124
-329
-67
331
-99
-269
51
-106
-427
-189
-55
-436
-517
-24
-192
-551
-111
-164
-523
-118
76
-390
-446
-189
-665
-845
189
1115
1894
3236
3139
617
-786
-309
-373
-409
165
-55
-577
-198
2
-315
-195
194
-96
-422
17
-61
-419
55
200
-153
-131
63
-109
-88
289
55
-212
143
288
36
-87
-61
-120
-48
370
284
1
182
285
79
121
533
354
265
736
452
131
663
830
452
650
1020
647
535
1041
824
379
664
742
347
401
627
217
-17
318
140
-383
-162
92
-335
-312
146
-337
-697
-9
-72
-506
-117
90
-459
-462
150
-146
-372
49
-135
-455
-10
98
-488
-374
-25
-520
-550
106
-45
-376
-77
48
-322
-317
47
-208
-400
-29
-112
-543
-351
-47
-475
-809
-141
-24
-437
-3
-49
-453
-191
-148
-490
-261
51
-333
-444
-78
-207
-446
-354
-104
-328
-426
69
-350
-387
379
205
-235
19
202
-229
-228
35
-416
-599
-82
-286
-763
-255
-173
-752
-340
69
-485
-487
-5
-215
-646
-578
-356
45
1416
2846
3335
2468
661
-569
-827
-187
-15
-551
-236
185
-312
-491
-8
-157
-468
-184
48
-254
-237
166
-124
-327
-45
-116
-362
60
257
-265
-107
370
-129
-421
195
77
-239
260
401
-136
67
403
9
28
363
261
59
492
721
182
170
688
499
339
809
687
329
807
934
486
749
1038
658
359
604
475
-104
182
417
-320
-328
211
-280
-529
-49
-254
-496
-86
-19
-458
-464
-63
-303
-581
-117
-148
-627
-273
-69
-655
-420
108
-376
-601
-50
-118
-596
-153
99
-468
-370
-39
-277
-476
-383
-255
-428
-317
-26
-416
-497
-91
-358
-530
-9
-196
-727
-322
-55
-435
-394
-105
-294
-538
-234
-190
-725
-286
113
-469
-404
-128
-397
-504
-147
-132
-425
-91
80
-400
-278
239
-20
-250
231
63
-558
-121
258
-474
-752
-171
-257
-570
-42
-74
-530
-123
-51
-596
-524
-43
-258
-591
-299
-461
-790
319
1994
2794
3466
2896
238
-946
-216
-184
-431
-122
130
-363
-572
162
-71
-602
22
10
-382
30
46
-288
-111
47
-217
-271
215
129
-407
-92
122
-304
-133
435
71
-353
261
294
-243
126
538
47
-169
334
388
165
335
441
216
488
846
355
308
870
671
375
756
865
664
815
985
606
530
909
413
78
611
422
-225
14
248
-340
-234
254
-435
-725
-129
-137
-352
-45
68
-428
-413
3
-314
-541
-33
-41
-504
-245
33
-476
-489
119
-116
-675
-287
-25
-347
-121
93
-392
-418
53
-393
-605
-65
-290
-579
-131
-10
-379
-271
-28
-344
-461
-141
-290
-578
-247
-11
-389
-326
-25
-423
-537
-87
-166
-536
-213
-10
-453
-365
28
-312
-552
-130
-254
-585
-143
146
-232
-212
210
62
-119
208
171
-319
-73
263
-345
-507
-81
-256
-506
-306
-320
-476
-128
-2
-506
-456
-38
-276
-554
-107
-75
-784
-609
120
761
2207
3805
3419
1134
-343
-448
-578
-180
186
-233
-226
-124
-397
-425
40
-1
-464
-71
222
-224
-264
103
-41
-449
-38
240
-436
-180
192
-281
-145
248
21
-248
208
270
-237
51
291
-138
59
450
137
16
392
366
-48
291
725
262
354
949
590
224
821
952
418
675
1012
635
581
1058
824
182
474
647
75
32
255
49
-38
130
-153
-361
-28
-74
-489
-248
107
-494
-452
120
-335
-565
-11
-33
-592
-264
28
-443
-260
93
-337
-448
40
11
-426
-310
-42
-367
-517
-3
-84
-532
-224
-103
-427
-273
-10
-328
-336
18
-364
-524
4
-127
-565
-280
-12
-393
-545
-215
-273
-508
-180
-163
-524
-177
-11
-464
-408
82
-197
-708
-233
-63
-400
-56
215
-135
-348
71
33
-345
104
79
-381
-89
49
-341
-367
-71
-338
-615
-184
-87
-529
-295
52
-611
-630
64
-399
-628
-89
-441
-1046
-501
686
1581
2807
3900
2462
-122
-488
-140
-652
-373
128
-280
-343
159
-149
-521
20
48
-442
-145
200
-303
-460
101
-14
-435
-89
60
-392
-260
255
-72
-158
380
40
-221
267
202
-213
67
342
-14
31
479
272
-59
330
388
20
373
723
276
283
832
602
323
839
910
433
738
1165
840
588
877
670
130
509
591
58
137
193
-177
-291
-24
-225
-594
-51
103
-498
-320
73
-351
-450
-85
-392
-536
-59
-93
-433
-263
-61
-308
-324
56
-166
-534
-35
36
-613
-394
-13
-366
-371
9
-293
-511
-36
-106
-665
-293
148
-399
-565
-68
-231
-554
-143
-114
-575
-227
128
-489
-568
30
-277
-677
-95
-10
-648
-543
46
-332
-526
56
-197
-530
-52
30
-401
-135
111
-444
-335
278
41
-214
179
152
-455
-231
102
-534
-488
-69
-561
-539
39
-113
-506
-285
-14
-492
-524
68
-179
-765
-642
-314
68
1477
3185
3498
2416
624
-772
-732
-174
-49
-242
-194
58
-189
-227
197
-48
-456
-144
2
-285
-129
146
-126
-111
192
-23
-264
26
86
-281
-50
425
72
-101
320
114
-190
235
313
-61
198
441
134
30
455
444
123
572
721
292
557
814
427
563
1014
754
375
820
994
604
789
919
594
554
883
538
117
452
363
-166
11
275
-231
-253
138
-135
-561
-207
129
-341
-257
122
-286
-431
58
-192
-543
-25
56
-299
-12
37
-757
-492
310
-96
-465
-124
44
-342
-197
144
-308
-342
113
-86
-421
-105
-24
-477
-247
75
-531
-523
122
-169
-557
-53
134
-434
-373
48
-292
-381
143
-210
-764
-138
165
-256
-319
-212
-260
-282
140
54
-369
93
229
-205
50
382
-210
-348
287
-178
-621
-45
-132
-586
-173
131
-436
-589
-78
-156
-478
-127
-42
-371
-303
-385
-618
-439
517
1608
2472
3584
2664
-147
-967
-262
-492
-515
215
54
-407
-55
106
-421
-325
164
-116
-186
209
29
-290
22
105
-280
-73
175
-140
-135
188
24
-349
68
350
-154
21
454
63
-110
367
361
101
226
256
92
321
454
151
396
768
421
192
806
764
176
654
1075
602
577
1066
901
484
666
832
319
274
614
44
-106
478
107
-367
65
150
-400
-243
137
-355
-554
50
-32
-593
-131
118
-437
-222
131
-360
-401
103
-200
-491
-21
88
-315
-150
61
-420
-303
164
-114
-435
-76
27
-430
-166
107
-397
-472
8
-292
-624
39
146
-440
-298
74
-369
-525
-3
-273
-554
2
-54
-480
-244
-44
-402
-456
35
-14
-399
-133
182
-157
-162
227
-156
-321
247
24
-435
-108
-173
-505
-256
-73
-298
-371
80
-198
-728
-120
88
-573
-445
117
-329
-703
-251
-46
470
2081
3192
2510
960
-343
-919
-618
-16
-6
-310
-29
140
-247
-239
114
-215
-390
108
-25
-227
201
243
-152
-10
225
-197
-125
443
-5
-317
359
337
-292
10
387
-24
-19
495
243
-100
354
391
132
208
469
489
405
688
464
234
660
799
406
507
949
665
433
1054
1003
274
790
1032
442
657
689
276
327
512
66
-210
225
132
-242
-222
46
-23
-188
116
-22
-311
45
127
-306
-163
204
-172
-353
155
11
-349
-72
74
-125
-192
101
12
-148
276
211
-351
-109
150
-247
-32
290
-172
-276
174
-133
-389
218
253
-245
-242
5
-120
-346
90
226
-234
77
281
-244
-46
163
-368
-320
262
172
-165
331
251
-372
59
475
100
-30
338
163
-291
-119
43
-275
-141
188
-129
-244
48
-41
-417
-218
85
-472
-266
338
-462
-678
309
976
1580
2816
3236
1324
-433
-396
-421
-355
245
68
-480
-173
150
-112
1
297
-17
-200
77
-41
-201
164
277
-167
15
452
-245
-430
391
196
-256
293
354
-92
187
216
-22
99
384
332
-38
347
534
109
229
429
176
257
803
648
357
785
881
445
465
848
776
670
1022
868
536
823
618
234
402
545
298
42
344
235
-408
-99
204
-333
-182
170
-251
-357
153
-85
-832
-566
32
-206
-247
119
-229
-365
33
-308
-552
-66
28
-356
-248
171
-359
-752
-88
-112
-464
-30
31
-458
-297
4
-412
-399
95
-176
-531
-117
-9
-703
-420
162
-447
-485
75
-189
-473
-281
-407
-590
-238
60
-209
-444
-182
-44
-526
-389
111
-343
-358
240
-171
-327
284
82
-316
-6
110
-268
-405
-319
-357
-368
-146
-164
-532
-405
-86
-424
-381
35
-357
-548
-31
-212
-829
-561
261
1049
2124
3377
2778
423
-435
-378
-591
-119
95
-348
-301
73
-371
-441
199
-94
-433
90
129
-464
-203
173
-202
-281
96
-65
-383
59
68
-350
24
353
-88
-124
320
-11
-457
152
467
-84
189
522
70
2
426
363
31
426
674
248
402
677
224
297
965
843
442
943
1007
480
800
966
353
262
679
473
-9
213
395
-177
-213
67
-351
-348
149
-154
-463
-109
-232
-520
-279
104
-130
-361
25
-76
-417
-193
17
-348
-282
134
-339
-442
82
-151
-534
-221
21
-366
-326
115
-82
-367
-154
-208
-440
-201
-76
-343
-263
98
-71
-287
-249
-355
-542
-214
98
-354
-297
89
-313
-513
-44
-175
-573
-146
12
-383
-175
130
-397
-579
-47
-199
-326
199
225
-144
-29
230
-124
-275
206
39
-449
-156
74
-489
-583
29
-210
-731
-275
-51
-477
-111
126
-458
-355
-36
-601
-795
288
1396
2287
3473
3205
762
-560
-243
-533
-347
88
-133
-175
35
12
-303
-115
180
-187
-284
197
36
-384
-146
-10
-191
-55
81
-230
-128
348
58
-410
33
319
-103
14
341
-20
-196
226
191
-69
282
484
7
42
619
333
103
658
617
286
633
822
423
479
824
634
654
1106
891
288
617
982
453
310
432
96
-3
317
81
-293
37
81
-391
-334
20
-347
-461
-9
-139
-477
-120
30
-536
-334
-10
-520
-574
10
-69
-522
-193
-18
-475
-349
111
-338
-607
5
-110
-547
-57
-24
-583
-368
-85
-394
-576
-103
-103
-536
-112
-1
-682
-423
132
-361
-581
-101
-216
-440
-264
-339
-530
-288
17
-447
-556
-1
-301
-634
-173
-111
-427
-204
153
-180
-313
68
-117
-242
63
-15
-334
-136
212
-189
-436
-108
-301
-528
-129
-179
-663
-415
8
-403
-592
-101
-361
-888
-344
-77
-719
-682
-310
-187
935
2661
3467
2940
1308
-338
-974
-439
116
-297
-402
-187
-282
-345
-209
-77
-407
-238
76
-427
-414
195
-116
-573
-41
129
-359
-204
132
-195
-389
55
3
-529
14
243
-373
-29
373
-37
-112
250
149
-100
344
472
-195
132
745
327
196
581
305
187
799
826
487
542
808
738
582
839
687
377
681
575
17
90
325
-58
-200
155
-94
-451
-167
-102
-515
-309
-86
-521
-438
-42
-313
-530
-289
-129
-323
-409
-45
-308
-538
-85
-262
-524
-137
-121
-485
-433
-108
-211
-448
-156
-242
-544
-335
-272
-522
-385
-54
-357
-555
-107
-212
-669
-250
-62
-848
-541
168
-424
-549
-45
-245
-606
-279
-114
-551
-472
-131
-408
-408
-183
-460
-583
-232
-94
-553
-412
95
-272
-425
155
183
-256
-6
199
-371
-402
62
-292
-562
-92
-163
-697
-415
-91
-536
-439
-154
-610
-784
-151
-98
-662
-197
-87
-901
-740
415
1445
2371
3696
3075
341
-564
-237
-524
-330
-26
-363
-500
23
-32
-661
-251
294
-331
-419
155
-245
-468
113
37
-419
-60
215
-310
-310
-26
-284
-147
292
36
-250
234
332
-181
2
509
99
-163
333
182
-110
218
408
113
198
708
524
307
784
819
332
490
848
572
599
1018
789
684
972
639
292
612
509
-50
137
331
-282
-234
269
-158
-489
-60
145
-387
-668
-78
-148
-524
-22
-71
-514
-120
50
-462
-328
141
-218
-432
8
-73
-422
-208
-83
-498
-433
77
-256
-427
17
-273
-526
-32
-21
-504
-404
-48
-270
-469
-48
-137
-546
-183
15
-515
-565
-24
-282
-500
66
-239
-859
-201
182
-428
-293
85
-316
-429
-4
-118
-517
-204
-12
-443
-187
309
-134
-294
219
20
-260
202
174
-360
-78
361
-416
-681
-22
-347
-593
-103
-41
-446
-355
-5
-431
-518
73
-133
-550
-213
-458
-1054
108
1807
2661
3537
3141
625
-953
-351
-156
-581
-154
234
-157
-282
-27
-207
-439
-97
108
-362
-172
229
-485
-468
232
-116
-312
220
233
-236
39
345
-258
-233
309
57
-251
181
417
-227
-272
351
151
83
508
345
63
318
485
190
404
783
437
390
899
673
322
758
918
553
643
1063
635
251
843
654
54
524
593
-37
135
224
-320
-289
116
-94
-429
-62
107
-418
-558
-154
-347
-385
143
-131
-467
-135
-105
-453
-211
30
-410
-415
104
57
-400
-183
14
-440
-261
27
-409
-378
-129
-256
-416
-196
-65
-384
-299
-46
-262
-433
-98
-158
-592
-199
2
-589
-368
77
-379
-494
-87
-209
-512
-201
-91
-495
-283
3
-362
-422
-28
-164
-363
-43
55
-263
-108
335
