-577
15
-184
-299
-64
-244
-297
6
-90
-172
89
-94
-348
-11
255
-170
-283
36
-28
-243
-88
272
222
-47
4
101
76
134
-30
-79
130
193
185
167
313
319
151
304
445
288
383
605
384
380
707
556
380
743
832
597
724
800
708
806
726
437
423
669
558
140
231
402
48
-123
64
46
-41
-36
-121
-250
-150
-22
-114
-230
-124
-117
-280
-30
-36
-264
38
125
-261
-182
20
-235
-65
186
-133
-347
-154
16
-238
-313
-45
-227
-215
43
-156
-332
-286
-166
-249
-250
5
-224
-418
-69
-103
-316
-242
-188
-287
-304
-186
-167
-62
94
-136
-326
164
307
-233
-230
72
-60
-261
-248
-213
-358
-313
-176
-444
-422
-52
-237
-570
-287
-35
-296
-372
-355
-806
-850
91
1210
2375
3606
3097
739
-595
-351
-244
-430
-230
-129
-355
-276
-228
-368
-198
-35
-258
-363
-106
-182
-315
-15
-98
-327
-97
-58
-287
-239
-81
-13
-111
-171
-39
-199
-16
259
-75
-117
74
51
25
157
270
96
116
295
172
228
515
447
370
520
486
307
541
846
443
312
589
407
351
484
207
-25
93
173
73
-63
-185
-387
-513
-250
-141
-414
-376
-154
-310
-417
-160
-288
-472
-266
-362
-571
-370
-100
-417
-523
-101
-240
-394
-85
-216
-590
-350
-213
-452
-379
-182
-279
-523
-352
-124
-472
-536
-181
-308
-502
-323
-455
-597
-342
-376
-500
-261
-255
-569
-510
-239
-401
-409
-96
-303
-505
-175
-58
-187
-197
-115
-223
-435
-64
-104
-647
-528
-299
-486
-563
-281
-436
-624
-283
-362
-634
-478
-425
-532
-567
-743
-843
19
1609
2750
3356
2529
295
-965
-605
-213
-474
-578
-349
-361
-523
-384
-276
-520
-605
-319
-286
-486
-382
-337
-539
-326
-50
-386
-456
-78
-355
-555
-157
-208
-353
-213
-166
-249
-223
79
52
-326
-92
69
-273
-32
299
49
32
371
308
71
209
288
192
363
540
399
362
585
412
129
484
461
-66
103
250
-156
-235
-33
-316
-525
-175
-355
-550
-180
-360
-764
-423
-112
-499
-652
-378
-376
-559
-478
-300
-501
-556
-274
-385
-616
-292
-185
-574
-582
-319
-281
-487
-409
-468
-695
-453
-386
-559
-319
-245
-577
-556
-266
-481
-604
-259
-427
-745
-517
-336
-541
-423
-199
-513
-561
-326
-477
-563
-213
44
-400
-582
-107
-127
-391
-189
-36
-270
-346
-343
-651
-588
-247
-331
-550
-492
-403
-578
-596
-464
-527
-512
-348
-383
-753
-999
-795
71
1526
3065
3598
2172
128
-885
-804
-391
-425
-592
-320
-98
-416
-673
-433
-316
-343
-240
-366
-550
-402
-270
-429
-343
-121
-230
-229
-167
-267
-346
-202
62
-142
-324
-134
-121
-143
-185
-85
35
101
232
15
127
355
119
100
343
472
341
426
696
329
207
705
591
421
729
701
484
538
557
290
214
393
106
-125
76
-57
-289
-143
-245
-458
-183
50
-132
-381
-173
-87
-542
-376
-88
-413
-328
-97
-322
-454
-191
-38
-237
-222
-79
-235
-333
-166
-169
-286
-144
-144
-440
-289
-121
-368
-113
-28
-396
-391
-135
-100
-422
-409
-161
-328
-306
16
-270
-472
-122
-149
-445
-282
-52
-253
-208
-31
-90
-36
-24
54
39
-111
-14
-163
-201
110
-41
-272
-47
-152
-517
-298
-169
-388
-143
-36
-413
-428
-127
-132
-398
-495
-560
-649
373
2062
2893
3392
2576
248
-800
-242
60
-277
-256
8
-162
-342
-26
1
-344
-199
185
64
-275
-71
-114
-311
50
119
-130
67
240
-31
-11
173
-1
-73
119
169
2
22
253
263
212
320
266
243
506
399
237
493
547
398
585
860
650
481
725
781
545
782
1050
628
537
798
665
482
478
286
116
307
238
-81
28
189
-20
-204
-73
-68
-175
20
2
-132
35
11
-253
-214
89
2
-241
-14
27
-213
-73
159
61
-158
-95
-68
-145
122
167
-235
-217
200
39
-201
74
-39
-226
-7
-36
-211
-76
144
-57
-285
95
133
-213
3
-82
-400
-148
100
-67
-205
159
251
-60
120
265
18
-23
288
288
28
300
321
-193
-187
44
-123
-92
93
-210
-207
145
-70
-370
-132
78
-117
-30
5
-346
-476
-142
864
2034
3290
3651
1667
-204
-282
-157
-256
103
303
-138
-96
109
-160
-225
23
31
-110
169
272
-13
33
147
32
258
348
-47
-101
198
225
-23
203
435
141
146
320
179
155
532
522
116
264
538
411
433
735
583
326
689
779
542
909
982
548
728
1029
821
677
976
931
551
619
625
415
424
555
374
14
202
318
-56
-7
203
-104
-109
220
39
14
225
22
-280
-56
246
-30
-88
161
65
-75
21
51
-3
161
194
-71
-105
73
89
13
30
6
-71
28
107
-176
-159
244
-31
-257
82
2
-230
-34
22
-214
-120
126
-181
-335
139
68
-287
-57
163
-116
-151
262
251
106
255
154
-56
45
234
-50
-299
56
-64
-390
-95
-70
-434
-206
79
-276
-229
27
-267
-373
-140
-260
-706
-456
808
1942
2929
3670
2042
-356
-512
-192
-393
-26
81
-361
-308
-73
-143
-220
-54
-88
-423
-233
28
-196
-144
131
-111
-292
39
-17
-273
102
166
-163
-59
38
-110
-170
50
100
-13
197
291
45
115
302
187
137
341
392
313
487
645
473
382
640
602
477
731
720
448
582
656
357
374
660
513
5
59
154
-196
-52
214
-126
-353
-167
-207
-248
-82
-60
-229
-336
-175
-243
-256
31
-178
-304
-75
-242
-403
-212
-52
-249
-299
8
-163
-361
-57
-102
-394
-87
148
-328
-429
-76
-234
-335
-84
-278
-486
-155
-8
-332
-287
-37
-333
-388
-72
-223
-411
-187
-128
-458
-396
14
-183
-347
77
5
-304
30
194
-143
-173
94
-73
-264
-20
-88
-423
-354
-288
-461
-256
-91
-391
-421
-169
-275
-488
-371
-218
-439
-609
-638
-643
269
1855
3067
3450
2344
301
-773
-595
-274
-338
-331
-112
-209
-468
-332
-114
-352
-327
-110
-349
-433
-155
-162
-385
-244
-110
-217
-244
-173
-199
-316
-90
213
-83
-267
-83
-180
-117
138
-6
-101
184
106
-141
157
325
-5
75
447
438
396
579
497
271
495
650
459
539
749
647
479
519
503
223
185
296
154
-21
-14
-122
-319
-63
-43
-386
-202
-100
-382
-314
-128
-202
-330
-232
-229
-497
-331
-77
-317
-325
-74
-243
-450
-108
-6
-404
-323
48
-217
-469
-112
-240
-569
-287
-226
-412
-237
-164
-464
-470
-91
-226
-438
-118
-187
-467
-328
-258
-452
-346
-53
-289
-466
-260
-299
-413
-265
-155
-291
-177
15
-144
-112
77
-17
-108
51
46
-252
-312
-78
-243
-561
-238
-113
-446
-411
-279
-317
-381
-394
-490
-527
-187
-106
-576
-733
-621
-356
881
2314
3358
3397
1445
-386
-702
-374
-120
-354
-438
-124
-263
-525
-222
-178
-431
-281
-118
-312
-470
-139
-47
-323
-162
-119
-359
-211
-21
-288
-316
10
-136
-162
175
8
-283
-31
111
-185
-12
481
128
-270
104
294
250
352
528
361
195
516
463
378
777
722
394
611
701
447
597
758
344
-25
212
272
-59
125
220
-200
-207
-81
-334
-346
-7
73
-203
-311
-246
-405
-435
-230
-262
-291
-158
-148
-379
-425
-132
-255
-238
161
-209
-565
-199
-164
-461
-301
-18
-234
-356
-151
-323
-516
-232
36
-151
-393
-376
-510
-446
-151
-283
-379
-160
-291
-523
-302
-162
-388
-366
-20
-107
-452
-284
-209
-338
-137
-37
-148
-12
183
-3
-198
-69
-61
-186
-47
-225
-545
-353
-146
-332
-478
-224
-284
-538
-293
-136
-419
-372
-139
-409
-748
-750
-542
160
1670
3150
3591
2380
291
-688
-472
-179
-169
-364
-304
-210
-324
-290
-175
-275
-387
-180
-127
-319
-180
-16
-178
-73
66
-188
-322
-118
-72
-174
10
50
-189
-164
163
107
-124
130
238
53
101
260
215
226
395
330
232
424
537
378
450
705
604
663
944
711
559
749
748
591
659
695
461
392
351
170
26
215
349
57
-26
2
-296
-249
65
-165
-372
-46
-43
-343
-146
17
-181
-129
47
-59
-189
-55
-33
-203
-136
-7
-140
-227
48
-64
-296
-32
-43
-222
-129
-9
-135
-143
20
-199
-322
36
101
-352
-276
27
-149
-175
-39
-193
-419
-131
121
-159
-230
-40
-205
-286
-108
-129
-50
103
23
-92
-69
195
236
18
256
192
-199
77
153
-201
-91
23
-270
-247
22
-148
-299
-120
-142
-328
-185
-36
-306
-280
-45
-511
-870
-77
1231
2343
3599
3572
1298
-384
-280
-218
-397
-125
-77
-291
-119
68
-194
-167
108
-212
-349
56
93
-117
3
166
-54
-35
159
-234
-251
250
153
-146
64
278
87
52
275
249
166
374
323
77
399
569
261
292
547
423
356
701
709
591
729
786
728
636
834
862
686
926
890
559
601
647
372
346
559
297
112
269
50
-140
-8
111
-57
-186
69
50
-273
-108
83
-226
-64
207
-30
-24
144
-52
-155
126
119
-218
-106
195
-51
-140
182
25
-210
69
135
-227
-105
214
-149
-184
149
-127
-185
138
-6
-240
-89
103
-13
-149
26
-59
-264
-98
-58
-226
-3
270
-19
-163
16
-74
-165
143
335
109
148
286
62
165
440
200
24
217
139
-265
-223
46
-158
-238
1
69
-92
-76
-40
-277
-111
163
41
-197
-349
-545
-581
488
1883
2872
3794
2899
416
-470
-40
-126
-117
227
88
-273
-97
101
-4
-23
-19
-110
-180
85
138
-150
20
116
-171
126
431
53
-46
116
61
-75
124
389
87
81
412
284
274
324
345
333
228
520
503
309
541
546
485
739
723
554
833
962
670
747
999
787
660
904
866
626
588
661
446
269
470
340
54
317
223
-243
173
350
-155
129
322
-239
-307
-10
45
-102
40
346
85
-94
188
2
-185
244
247
-43
55
165
26
-1
139
63
80
201
139
-31
-49
94
30
25
164
-47
-130
219
176
-37
27
1
-101
-22
213
80
-162
60
121
-9
123
202
-50
-159
253
307
180
348
188
96
331
403
132
150
488
265
-51
76
51
-139
61
318
-49
-226
69
-39
-145
7
28
-2
110
188
-158
-546
-178
854
1962
3207
3713
1959
-93
-368
-202
-91
237
165
-79
178
244
-170
15
364
-31
-142
225
83
-78
312
292
-152
46
372
182
93
210
17
19
394
357
71
147
475
298
107
507
416
79
424
634
398
504
682
422
391
758
753
646
804
740
607
779
950
831
693
888
871
689
812
741
516
438
477
349
156
335
296
-73
65
250
10
-5
160
31
-30
154
109
-62
-6
92
7
50
266
172
73
234
55
-68
260
146
-137
120
220
-76
-123
214
136
-56
157
5
-175
75
144
-142
-115
187
-5
-179
129
75
-274
-140
130
-98
-193
174
76
-215
7
122
-143
-16
213
-78
-79
257
140
37
373
269
-123
-15
187
-1
-179
-40
-127
-280
-115
-95
-334
-239
116
-58
-281
-78
-284
-441
-22
-204
-840
-404
875
1808
2857
3508
1850
-228
-497
-223
-262
-216
-2
-218
-251
240
-93
-473
-88
-63
-381
-218
22
-180
-178
117
-38
-279
-114
-70
-203
7
203
-28
-136
7
-85
-181
29
88
-63
86
249
48
78
315
240
112
328
515
342
387
562
324
363
712
552
429
681
621
420
601
755
509
334
411
308
207
303
102
-204
-140
64
-113
-323
-138
-186
-389
-187
-33
-255
-290
-106
-351
-495
-190
-280
-406
-37
-64
-450
-328
-95
-228
-290
-77
-105
-296
-129
-141
-462
-211
-18
-349
-193
-86
-475
-505
-212
-240
-478
-341
-123
-334
-374
-113
-261
-486
-328
-313
-575
-313
-51
-444
-517
-254
-336
-427
-143
-42
-300
-270
-92
-195
-172
-14
-165
-260
-114
-163
-411
-418
-288
-446
-553
-296
-289
-515
-307
-395
-754
-500
-286
-446
-525
-520
-754
-954
-61
1262
2228
3336
2935
570
-747
-482
-416
-535
-313
-258
-447
-305
-215
-580
-670
-271
-297
-583
-374
-253
-435
-357
-234
-366
-351
-147
-172
-347
-287
-193
-370
-352
-52
-241
-466
-52
-13
-332
-52
118
-214
27
440
48
-144
133
68
173
406
253
110
258
474
333
319
537
349
248
636
665
140
144
319
-5
-112
44
-46
-184
-182
-355
-557
-419
-261
-366
-425
-221
-377
-764
-453
-253
-565
-345
-215
-694
-673
-321
-400
-570
-451
-249
-372
-474
-286
-442
-605
-376
-344
-449
-249
-319
-645
-475
-359
-657
-640
-333
-380
-575
-400
-292
-641
-526
-197
-501
-606
-286
-408
-724
-459
-357
-622
-428
-417
-686
-530
-269
-259
-466
-404
-171
-332
-318
-87
-304
-312
-24
-268
-572
-437
-468
-641
-452
-392
-602
-694
-515
-501
-722
-424
-272
-749
-712
-352
-671
-1044
-717
44
1145
2620
3585
2417
135
-626
-570
-644
-355
-453
-685
-363
-329
-649
-520
-266
-571
-624
-298
-410
-491
-195
-246
-631
-400
34
-396
-613
-150
-276
-482
-147
-94
-424
-271
-33
-295
-287
33
-60
-291
-18
127
-182
-100
209
106
153
348
235
173
317
414
253
329
587
426
474
750
443
138
285
326
156
108
158
-42
-189
-78
-237
-444
-235
-128
-400
-373
-159
-491
-643
-260
-292
-322
-126
-378
-608
-462
-274
-361
-422
-201
-359
-467
-164
-280
-556
-398
-169
-375
-424
-123
-302
-588
-289
-160
-526
-489
-294
-428
-444
-318
-388
-561
-449
-278
-417
-345
-199
-439
-429
-80
-204
-612
-465
-330
-562
-414
-202
-448
-384
-87
-248
-366
-52
30
-330
-189
83
-251
-359
-203
-356
-508
-342
-206
-496
-495
-209
-556
-647
-317
-420
-525
-259
-199
-608
-745
-758
-647
585
2142
3129
3284
1789
-256
-911
-435
-63
-192
-455
-326
-350
-571
-319
-132
-335
-388
-251
-365
-365
-129
-235
-395
-61
102
-266
-338
-202
-312
-208
-17
-163
-282
-120
-9
-214
-63
240
-29
76
300
15
-26
274
392
71
164
546
301
261
523
405
372
648
678
487
644
804
475
464
865
506
79
347
393
89
93
158
-52
-110
-98
-104
-130
-205
-163
-140
-212
-238
-321
-404
-183
-122
-381
-199
-39
-347
-269
-53
-207
-250
42
-56
-363
-169
-99
-295
-240
-26
-189
-334
-30
-109
-375
-79
5
-416
-279
24
-246
-275
-76
-218
-462
-295
-98
-361
-294
-102
-387
-271
21
-243
-304
-114
-222
-355
-270
-24
-69
-243
4
66
-107
63
73
-162
-38
9
-128
27
31
-353
-535
-318
-190
-274
-232
-133
-276
-395
-132
-220
-468
-133
-298
-845
-758
111
1345
2532
3805
3185
606
-589
-414
-400
-136
53
-338
-389
-120
-221
-433
-275
-88
-219
-198
-112
-248
-233
-4
-54
-299
-233
-88
-236
-228
-92
-205
-173
53
13
-103
69
181
-105
-112
249
187
27
250
120
-104
282
424
152
259
548
339
214
557
572
318
613
881
531
467
658
442
313
561
568
219
144
174
-117
-142
45
-181
-240
39
-174
-358
-120
-257
-479
-252
-107
-378
-416
-103
-176
-403
-272
-264
-305
-128
-134
-179
-214
-243
-299
-460
-285
-145
-251
-192
-196
-341
-288
-120
-195
-338
-219
-193
-472
-393
-115
-336
-469
-177
-231
-554
-406
-226
-297
-253
-242
-364
-334
-99
-251
-536
-352
-268
-459
-288
36
-165
-263
-13
-70
-161
104
168
-231
-255
-136
-420
-464
-243
-242
-448
-434
-317
-471
-351
-256
-584
-498
-211
-352
-568
-653
-756
-576
699
2304
3372
3472
1658
-454
-982
-432
-162
-495
-432
-177
-417
-513
-231
-252
-340
-224
-172
-289
-358
-149
-290
-368
-69
-277
-470
-169
-115
-225
-5
62
-252
-219
55
58
-89
-17
129
-85
-75
125
-4
42
345
204
89
438
482
276
312
501
351
173
546
661
419
599
681
499
620
690
465
417
564
258
-95
171
183
-140
-137
-22
-215
-304
-41
-206
-338
25
2
-276
-196
-160
-369
-306
52
-67
-416
-189
-49
-200
-152
-83
-67
-202
-61
51
-325
-153
-45
-306
-67
48
-189
-239
-50
-220
-334
79
-15
-330
-128
18
-217
-279
31
-69
-336
-123
-49
-248
-216
-137
-214
-258
-63
-53
-270
-49
124
-189
-100
268
121
36
156
71
-66
51
30
-288
-155
33
-194
-228
-121
-260
-314
-165
-147
-281
-154
21
-234
-250
-200
-610
-635
296
1611
2740
3631
2751
422
-639
-383
-186
-195
-11
-35
-156
54
39
-244
-273
-9
16
-131
113
168
-162
-62
131
-64
-23
122
53
115
100
53
126
68
128
183
115
224
197
81
312
374
114
223
639
490
243
524
542
455
644
600
387
602
807
583
656
893
722
630
917
838
424
483
685
438
245
406
241
4
180
294
49
-65
16
2
156
165
-141
-331
-106
77
-137
5
185
-58
-7
231
35
-126
101
162
-78
17
138
-106
14
161
60
31
-34
-61
-124
9
181
-86
-70
227
34
-135
106
50
-215
27
165
-98
-61
43
-56
-59
78
28
-165
-13
217
5
-40
260
181
52
264
277
59
150
368
169
-161
15
-22
-230
78
39
-246
-128
-7
-227
-162
172
-123
-267
137
-23
-543
-141
1206
2237
3013
3269
1401
-569
-470
-115
-177
32
98
-110
-118
86
-49
-131
226
87
-185
89
203
58
21
105
66
-133
114
321
-94
14
387
48
-74
253
283
238
345
354
138
56
278
215
247
621
529
271
456
543
406
550
629
397
356
634
682
639
836
793
487
643
819
429
350
674
519
97
243
327
-55
47
219
-38
-31
71
-112
-160
148
79
-311
-196
-91
-302
-163
189
59
-281
-139
25
-214
-39
309
-99
-271
75
-106
-251
134
113
-208
-95
-27
-264
-217
56
-143
-245
165
-44
-394
-37
-8
-344
-219
9
-126
-268
16
175
-305
-410
-35
-113
-159
133
-4
-225
41
259
90
-18
141
52
43
191
-112
-319
-97
-68
-321
-280
-78
-209
-279
-91
-216
-337
3
-154
-509
-300
-265
-286
593
1888
2692
2736
1368
-395
-875
-399
-65
-235
-290
-95
-238
-390
-43
-51
-382
-112
64
-205
-110
76
-93
-129
-41
-27
-82
15
190
-87
-205
20
-88
-135
125
68
-212
63
260
-106
66
346
168
96
211
314
243
298
404
252
374
603
365
371
718
556
296
560
658
447
497
592
394
223
323
313
287
205
-2
-201
-213
8
-182
-185
100
-210
-450
-174
-19
-258
-272
-15
-164
-262
-119
-235
-333
-85
29
-252
-278
52
-102
-386
-75
-38
-377
-283
-89
-247
-228
6
-72
-254
-216
-221
-382
-244
-51
-248
-310
-159
-211
-285
-173
-125
-347
-267
1
-245
-398
-116
-262
-524
-231
-50
-232
-169
89
-159
-155
254
-20
-224
10
-83
-279
-157
-149
-423
-360
-113
-238
-438
-359
-350
-437
-319
-115
-160
-331
-371
-696
-853
13
1220
2155
3244
3035
668
-788
-495
-384
-410
-156
-162
-465
-279
-47
-328
-420
-240
-189
-296
-204
-187
-384
-197
-7
-144
-165
-103
-216
-318
-149
-5
-89
-46
-44
-268
-120
128
-105
-158
80
78
-35
6
186
120
76
277
261
250
421
366
274
500
546
327
419
707
580
369
601
547
196
415
501
183
130
66
-80
-196
-102
-78
-315
-127
-43
-378
-290
-94
-357
-448
-94
-92
-396
-345
-235
-381
-380
-98
-140
-403
-270
-211
-406
-269
-56
-191
-310
-110
-131
-410
-229
-98
-472
-448
-110
-307
-451
-190
-306
-510
-82
-27
-514
-314
-69
-435
-463
-15
-145
-544
-272
-142
-511
-436
-140
-342
-308
36
-151
-301
-119
-165
-94
67
89
-1
-227
-180
-222
-430
-306
-185
-387
-413
-222
-266
-327
-366
-455
-485
-216
-136
-462
-350
-446
-896
-231
1291
2384
3231
3029
983
-607
-593
-343
-432
-395
-103
-116
-399
-278
-216
-397
-270
-149
-385
-430
-66
-114
-307
-173
-177
-302
-193
-93
-378
-304
111
-133
-417
-87
-41
-230
13
63
-126
0
83
-119
-163
203
305
9
140
381
159
189
451
306
245
509
539
330
491
764
446
350
571
285
103
409
435
-56
-76
133
-208
-261
28
-227
-491
-230
-220
-523
-401
-103
-306
-481
-210
-344
-540
-218
-254
-475
-261
-216
-399
-331
-145
-322
-506
-158
-102
-445
-316
-174
-555
-489
-126
-380
-430
-148
-306
-501
-328
-263
-488
-405
-198
-439
-544
-284
-368
-528
-377
-296
-437
-489
-345
-345
-383
-190
-340
-676
-375
-89
-378
-344
-71
-305
-353
4
-23
-338
-255
-80
-362
-483
-227
-437
-676
-316
-288
-714
-591
-345
-623
-584
-317
-540
-668
-505
-764
-985
-347
820
1914
3050
3351
1252
-740
-682
-539
-638
-343
-193
-547
-635
-343
-472
-654
-453
-341
-513
-444
-236
-325
-397
-319
-465
-540
-248
-282
-470
-313
-246
-436
-409
-100
-192
-274
1
-257
-469
-205
-26
-71
-168
31
-108
-290
162
157
-95
176
597
420
-39
124
100
78
519
449
262
489
400
48
224
441
104
-120
58
-64
-335
-153
-209
-534
-497
-286
-333
-584
-475
-389
-617
-489
-279
-494
-534
-255
-490
-658
-302
-413
-485
-190
-339
-607
-516
-282
-384
-502
-316
-413
-582
-372
-269
-459
-521
-344
-362
-572
-396
-367
-623
-406
-210
-535
-614
-346
-513
-659
-359
-430
-598
-371
-318
-507
-616
-557
-607
-565
-233
-349
-570
-217
-162
-474
-336
-56
-169
-327
-137
-128
-413
-472
-538
-761
-654
-398
-557
-683
-409
-350
-704
-695
-459
-598
-482
-266
-628
-1010
-830
82
1378
2849
3521
1849
-210
-606
-670
-727
-290
-302
-664
-514
-305
-476
-488
-342
-540
-619
-315
-331
-554
-345
-194
-401
-410
-174
-296
-515
-226
-241
-439
-223
-199
-392
-230
116
-125
-340
-35
-79
-349
-21
371
84
-69
99
-61
-67
323
309
184
480
392
102
273
546
570
510
599
433
149
397
494
173
172
186
-175
-294
-35
-97
-369
-203
-195
-525
-397
-192
-384
-442
-195
-273
-523
-339
-178
-397
-425
-178
-327
-441
-67
-130
-525
-433
-274
-390
-364
-189
-298
-338
-25
-211
-631
-344
-200
-417
-83
11
-435
-635
-496
-408
-502
-251
-105
-405
-393
-200
-440
-550
-109
-115
-515
-328
-99
-442
-480
-234
-352
-311
-58
-22
-93
-75
-33
-177
-230
105
14
-360
-216
-335
-581
-333
-311
-537
-371
-220
-487
-445
-256
-379
-333
-131
-341
-945
-988
-42
1105
2416
3711
2896
530
-557
-535
-544
-330
-156
-231
-229
-269
-354
-496
-335
-152
-358
-289
-105
-288
-290
23
-170
-419
-82
-76
-419
-212
98
-155
-257
28
35
-213
-151
230
114
-66
158
47
-85
176
224
93
328
424
207
318
453
422
586
635
473
459
664
688
468
630
812
521
485
646
405
195
390
460
79
-92
84
-83
-167
56
-90
-249
-63
42
-280
-385
-170
-185
-182
-50
-120
-305
-35
165
-209
-252
14
-163
-181
106
-4
-89
-23
-87
-303
-261
112
-104
-295
34
-48
-195
-47
-128
-306
-126
-5
-253
-212
-13
-15
-226
-243
-121
-334
-250
17
-131
-252
-70
-73
-151
-88
-9
-71
-140
43
128
136
141
30
-132
-29
101
-236
-183
55
-384
-379
-37
-251
-362
-174
-168
-361
-232
9
-105
-351
-436
-538
-538
574
1814
2700
3502
2129
-298
-803
-208
-164
-334
-53
-19
-255
-139
-120
-341
-187
84
-204
-318
84
37
-283
-33
115
-152
-174
20
-54
-148
162
120
-241
-53
227
-16
-112
284
237
-34
244
333
113
178
287
349
374
434
436
281
510
571
359
631
782
585
570
831
776
396
649
802
373
533
779
407
292
364
144
27
183
138
-199
-93
85
-149
-134
57
3
-144
-61
37
-207
-167
186
-103
-378
-32
98
-28
64
45
-253
-144
141
-72
-144
251
78
-240
-26
25
-126
-162
-28
-200
-229
91
-60
-210
7
34
-197
-82
141
-208
-367
3
-35
-256
-74
-46
-283
-114
126
-92
-182
144
359
28
13
345
-65
-206
166
-26
-117
112
-167
-359
-76
-130
-320
-21
55
-381
-308
14
-140
-304
-118
-307
-837
-450
658
1587
2704
3537
2346
36
-739
-367
-282
-29
62
-384
-296
135
-122
-361
-105
-36
-64
-46
-98
-248
-225
21
46
-76
-38
-21
-167
-140
44
-69
-42
360
232
-137
47
116
-10
257
322
12
5
294
287
205
415
436
260
455
626
342
452
713
584
513
813
893
391
433
770
558
507
710
465
107
219
273
-19
160
320
-152
-192
37
-176
-329
-34
99
-266
-316
-31
-243
-352
-10
-131
-265
157
146
-331
-287
-71
-179
-133
113
17
-222
-117
-74
-314
-218
0
-264
-232
11
-217
-329
-118
-46
-249
-243
-72
-171
-267
-161
-210
-380
-193
-31
-243
-274
-209
-398
-380
-112
-109
-241
-101
-8
-218
-22
214
-110
-109
291
71
-296
13
107
-271
-312
-76
-242
-399
-244
-313
-295
63
8
-478
-369
-98
-390
-355
-231
-595
-705
10
1236
2233
3396
3222
851
-333
-259
-446
-416
-191
-145
-377
-288
-98
-250
-306
-145
-196
-330
-145
-60
-145
58
55
-282
-267
-27
-146
-307
10
110
-185
-112
96
-23
-43
110
-26
-163
290
581
-6
-71
317
104
59
436
407
260
536
434
244
481
609
550
696
836
568
299
557
725
381
436
679
379
168
217
8
-104
74
-5
-143
-24
0
-266
-411
-162
-142
-290
-134
-55
-368
-450
-161
-250
-321
-18
-23
-124
-44
-151
-352
-320
-179
-235
-205
1
-142
-428
-221
-147
-418
-90
154
-308
-314
-67
-310
-481
-175
0
-296
-290
-112
-311
-379
-138
-195
-338
-118
-159
-413
-241
-6
-145
-340
-171
-70
-234
-29
55
-176
17
226
-4
-65
101
-128
-413
-154
-114
-447
-313
-114
-205
-289
-292
-323
-410
-191
-131
-512
-389
-260
-721
-634
579
1851
2815
3694
2492
-168
-786
-140
-344
-420
85
-122
-533
-254
-214
-425
-161
17
-286
-434
-87
-90
-376
-38
-47
-437
-114
107
-207
-222
35
-123
-269
-11
2
-144
-54
155
101
-102
40
125
43
297
387
77
137
373
275
293
594
496
236
460
457
262
547
706
491
548
805
653
292
419
491
113
206
429
-44
-190
104
-199
-383
-141
-164
-348
-198
-66
-399
-470
-183
-220
-311
-52
-91
-462
-379
-166
-241
-186
-93
-298
-470
-267
-107
-299
-207
-55
-335
-359
-163
-252
-271
-99
-211
-350
-225
-241
-376
-373
-238
-285
-414
-130
-92
-536
-419
-94
-272
-337
-144
-302
-489
-140
-109
-469
-384
-257
-307
-237
-120
-197
-269
-126
-74
-105
17
172
-63
-229
85
-84
-433
-292
-251
-448
-392
-176
-426
-430
-173
-374
-504
-293
-257
-508
-346
-228
-821
-857
533
1848
2857
3735
2220
-139
-585
-530
-507
-306
-192
-173
-373
-293
-217
-458
-309
-89
-299
-355
31
16
-319
-95
-137
-491
-208
48
-203
-266
42
-35
-362
-85
163
-183
97
473
-158
-96
329
-13
-76
221
284
30
91
377
321
320
459
468
384
583
771
449
516
813
487
383
745
740
405
447
471
175
228
305
-8
-178
155
157
-181
-50
-191
-449
-269
-55
-248
-375
-74
-150
-344
-113
10
-201
-263
-19
-135
-282
95
-154
-498
-101
-64
-231
-77
-94
-309
-202
105
-150
-334
-85
-72
-191
-251
-168
-240
-364
-118
-70
-299
-187
-199
-373
-149
-40
-297
-330
-127
-112
-324
-296
-171
-291
-206
-132
-339
-258
195
75
-358
-124
41
-106
103
196
-44
-70
64
-89
-316
-133
-129
-374
-187
-38
-400
-523
-197
-260
-469
-284
-192
-398
-305
-234
-707
-722
306
1522
2689
3693
2620
190
-639
-429
-445
-284
-32
-224
-403
-196
-44
-270
-274
-3
-282
-421
-72
-58
-308
-253
-26
-118
-207
-53
-219
-204
130
40
-193
-44
105
-176
-49
329
40
-65
280
216
64
265
237
58
286
435
309
433
555
334
311
637
726
527
678
811
567
556
708
679
476
557
672
343
295
466
106
-102
161
-36
-270
-63
1
-179
-178
25
-133
-265
35
-57
-319
-139
-57
-96
-41
-48
-272
-352
-64
-104
-198
41
23
-271
-122
335
-76
-516
-77
-74
-368
-144
-36
-189
-150
-98
-153
-169
-127
-127
-256
-204
-112
-253
-174
-114
-305
-195
-8
-195
-419
-258
-53
-143
-117
-127
-321
-122
139
-14
-145
76
199
-11
104
159
-171
60
366
-158
-557
-159
9
-307
-255
-36
-297
-491
-200
-136
-305
-52
-18
-420
-412
-461
-789
-189
1323
2513
3452
3282
1080
-748
-611
-45
-163
-258
-89
-205
-322
-164
-33
-123
-171
-55
-165
-260
-101
-139
-253
-46
-57
-247
-75
-26
-311
-314
57
-11
-212
246
306
-227
-141
171
53
-57
121
41
-87
270
381
64
141
294
196
315
474
337
243
547
547
287
471
574
372
367
675
694
307
305
372
-28
99
368
-116
-284
-72
-170
-434
-267
-109
-371
-237
-146
-465
-391
-121
-285
-428
-143
22
-218
-311
-231
-454
-457
-52
-22
-335
-328
-100
-298
-415
47
-205
-579
98
109
-468
-279
-83
-297
-207
8
-217
-320
-112
-124
-286
-53
7
-343
-251
-178
-283
-182
-3
-66
-301
-177
-170
-343
-5
236
-108
-168
48
-119
-133
334
320
-136
-211
16
-70
-272
-1
-134
-469
-140
-111
-542
-229
26
-506
-318
154
-260
-566
-380
-512
-836
142
1754
2714
3607
2859
258
-848
-244
-58
-254
-142
-28
-215
-320
-177
-106
-171
-33
-3
-251
-134
108
-38
-109
166
134
-176
-9
105
-98
77
249
-41
-114
255
176
-38
305
354
43
238
503
139
104
513
359
231
541
559
323
468
638
557
610
771
661
359
656
969
563
580
823
609
493
467
396
220
151
160
-14
-71
-28
-229
-244
18
-107
-301
-116
-40
-419
-462
-119
-262
-402
-50
-96
-467
-180
167
-267
-395
-15
-238
-356
64
-32
-360
-67
-15
-333
-208
20
-141
-265
-165
-231
-225
-64
-123
-280
-149
23
-226
-300
-11
-214
-349
-17
3
-306
-283
47
-93
-199
115
173
161
328
205
-100
17
142
-114
-243
-50
-55
-321
-182
-70
-227
-150
-214
-391
-289
60
-45
-397
-240
-386
-833
-423
749
1920
3202
3856
2062
-291
-598
-269
-199
-28
-1
-116
-159
-83
-101
-240
-51
37
-292
-183
50
-124
-123
104
82
-161
11
117
-141
126
136
-142
-58
149
176
-26
180
322
62
54
288
220
124
415
324
118
542
674
331
484
750
535
464
656
755
814
823
760
578
638
835
717
697
719
534
303
396
518
223
139
132
-77
-70
62
-40
-215
-28
220
-47
-24
100
-346
-223
173
-15
-206
-19
17
-163
-30
99
-121
-68
272
51
-328
51
202
-215
-28
118
-208
-180
27
-28
-193
21
169
-234
-302
-89
-84
-65
-5
-2
-109
-7
148
75
95
226
87
-19
233
179
-19
140
178
-153
-226
-15
-86
-238
-196
-240
-325
-233
-203
-312
-259
-122
-264
-384
-112
-154
-677
-744
-358
372
1810
3382
3606
1875
-37
-519
-333
-212
-197
-305
-124
-25
-405
-421
-154
-260
-319
-30
3
-243
-104
-24
-240
-262
-83
-30
-190
-106
34
-46
-194
36
115
-93
129
32
-143
285
387
-20
-24
313
258
164
342
247
145
434
596
269
364
820
602
426
817
655
306
656
819
516
509
732
494
209
447
445
-12
-4
102
-190
-283
-57
-155
-353
-119
-242
-388
-53
-103
-438
-208
108
-163
-249
-89
-216
-382
-188
7
-301
-348
39
-102
-400
-158
12
-251
-254
-108
-234
-101
70
-258
-433
-236
-220
-310
-178
-12
-327
-485
-169
-236
-270
39
-124
-387
-139
35
-100
-10
278
66
-40
324
134
-198
-105
-152
-432
-304
-142
-443
-447
-172
-202
-411
-362
-250
-380
-421
-285
-289
-397
-454
-722
-888
-150
1155
2258
3430
3160
633
-943
-568
-346
-458
-220
-155
-384
-293
32
-215
-613
-301
-57
-284
-244
-43
-298
-370
72
-127
-347
21
-75
-293
-57
-85
-253
9
60
-158
-12
209
-12
-207
147
244
-24
187
255
-1
53
328
409
156
330
670
380
293
545
374
387
702
645
552
649
562
256
324
605
278
27
325
201
-227
-87
148
-236
-351
-66
-188
-261
-117
-211
-226
64
-185
-499
-258
-87
-255
-411
-73
-65
-353
-106
-23
-307
-196
-43
-272
-257
-81
-125
-307
-261
-38
-292
-394
-17
-186
-424
-168
-247
-416
-117
-101
-397
-262
6
-162
-330
-41
69
-41
127
262
-30
-133
207
48
-234
-84
-182
-332
-277
-268
-361
-438
-274
-356
-591
-328
-241
-512
-282
-75
-292
-427
-577
-758
-335
966
2126
2957
2842
1015
-723
-891
-280
-244
-461
-246
-165
-389
-170
110
-311
-421
-77
-267
-353
-66
-163
-350
-140
-29
-308
-241
73
-161
-309
15
87
-128
20
47
-334
-54
328
-25
-191
176
227
-102
165
477
101
20
397
312
212
537
366
136
561
740
286
362
701
436
343
520
379
274
485
360
35
120
210
-38
-183
-72
-108
-354
-208
20
-212
-240
-83
-225
-413
-223
-24
-228
-195
-86
-305
-332
-159
-254
-252
-3
-171
-375
-198
-104
-186
-157
-99
-333
-485
-166
-206
-389
-142
-78
-276
-391
-274
-192
-249
-258
-274
-368
-239
-132
-403
-330
-5
-151
-245
34
98
1
79
70
-114
-53
36
-324
-444
-125
-295
-527
-276
-283
-357
-345
-420
-506
-471
-163
-286
-578
-292
-254
-724
-843
-507
238
1372
2798
3511
1831
-346
-784
-694
-533
-117
-249
-485
-236
-336
-590
-311
-172
-310
-154
-81
-355
-478
-256
-268
-324
-11
-94
-401
-362
-172
-184
-132
127
-63
-223
43
60
-275
-161
237
54
-132
146
185
-99
62
282
15
120
517
337
268
529
396
275
518
616
437
536
702
398
210
499
395
11
234
261
-129
-42
120
30
-148
-182
-128
-271
-203
-109
-367
-287
-68
-385
-497
-153
-169
-328
-101
-164
-421
-275
-106
-41
-143
-287
-242
-346
-281
-109
-318
-288
-107
-288
-411
-232
-198
-395
-212
-91
-417
-334
-146
-468
-519
-156
-181
-405
-292
-256
-478
-372
-34
-216
-499
-221
-139
-422
-122
233
-142
-212
168
19
-141
96
127
-29
-120
-287
-564
-457
-224
-327
-363
-220
-319
-665
-509
-172
-414
-357
85
-284
-689
-583
-812
-882
230
1739
2771
3428
2467
203
-827
-463
-189
-287
-239
-124
-379
-487
-177
-277
-502
-110
-134
-467
-228
-126
-384
-317
35
-203
-310
49
-130
-357
-148
-69
-269
-216
105
25
-163
99
132
-59
114
75
-142
136
318
102
6
177
221
109
332
564
364
308
611
502
264
592
636
336
583
706
428
335
373
291
37
121
147
-202
-43
53
-280
-245
82
-68
-352
-176
-212
-410
-187
17
-304
-412
-124
-213
-370
-152
-61
-215
-184
-16
-109
-235
-144
-275
-394
-117
-60
-393
-282
-92
-325
-188
7
-254
-388
-78
7
-380
-334
-191
-353
-220
-137
-300
-366
-104
-56
-464
-318
-47
-217
-228
-134
-335
-510
-171
-102
-302
11
130
-165
-254
57
124
-82
91
122
-133
-59
10
-259
-358
-208
-270
-477
-255
-193
-513
-371
-188
-348
-340
-153
-259
-401
-414
-737
-829
189
1757
2876
3592
2578
84
-878
-314
10
-350
-385
30
-151
-348
-152
-227
-416
-245
-129
-373
-295
-147
-344
-245
65
-37
-224
-60
-60
-310
-187
51
-148
-105
221
-23
-235
76
126
-102
135
356
-22
24
399
74
-12
461
423
300
517
480
240
268
509
454
437
735
696
442
496
591
402
320
658
729
254
143
154
-119
-49
116
-81
-144
-111
-319
-290
-110
-84
-200
-196
-44
-296
-388
-97
-145
-224
-27
-54
-320
-104
97
-302
-236
47
-254
-288
-31
-140
-243
-145
-131
-209
-232
-138
-106
-162
-157
-190
-331
-248
-124
-299
-279
-26
-160
-388
-221
-138
-205
-174
-157
-229
-269
-95
-137
-322
-10
14
-341
-110
98
-80
-79
176
158
-54
258
373
-117
-110
140
-151
-321
-116
-158
-285
-103
-160
-357
-242
-109
-284
-368
-34
-198
-506
-284
-382
-767
-199
1208
2273
3420
3643
1385
-611
-409
-84
-288
-116
-6
-221
-242
-112
-261
-345
-46
-43
-203
21
72
-199
-277
59
45
-229
43
69
-162
-4
103
-123
-74
275
171
-3
135
177
62
167
304
145
262
456
225
140
405
403
226
609
747
321
499
650
425
553
774
758
645
750
780
563
592
777
539
206
514
505
-50
7
239
-60
-93
206
-26
-212
30
-25
-226
-60
1
-218
-90
75
-244
-212
98
-14
-221
-42
238
-63
-189
83
-79
-163
67
22
-251
-156
30
-66
-76
-37
-197
-149
145
20
-286
-233
-83
-133
-118
-24
-176
-290
-33
-74
-355
-163
129
51
-116
-102
-225
-307
-44
-22
-317
-70
183
-106
-19
232
131
154
405
260
-107
106
246
-117
-141
-13
-243
-347
3
-13
-373
-136
-13
-334
-298
-161
-277
-241
-25
-269
-779
-729
6
1063
2400
3768
3333
942
-419
-448
-472
-219
32
-191
-347
-123
-175
-296
-27
106
-116
-225
-159
-283
-290
-18
-6
-18
101
-74
-335
-159
106
-74
6
320
126
-43
141
129
-73
149
404
174
67
209
152
117
382
568
458
357
446
384
368
633
657
589
772
764
600
681
745
670
729
777
519
326
520
467
152
290
408
-8
-151
135
-125
-349
104
88
-128
-17
-128
-214
-101
67
-1
-130
43
10
-160
-75
-11
-120
-175
124
74
-278
-110
-59
-174
-3
244
49
-322
-61
2
-329
-137
-86
-180
85
-73
-340
-167
-22
-36
-124
-55
-18
-233
-54
49
-313
-144
113
-188
-297
-88
-208
-367
6
194
-43
-30
59
-19
18
224
199
16
103
170
-39
-101
35
-100
-270
79
138
-361
-327
-137
-311
-271
-74
-207
-344
-31
18
-585
-785
-431
176
1362
2949
3977
2716
449
-461
-551
-257
-42
-191
-189
-43
-164
-266
44
-59
-348
-44
38
-258
-181
41
-74
-196
-10
43
-10
140
-1
-259
-105
252
90
-166
164
151
-117
100
317
162
149
316
212
171
435
453
258
286
366
319
376
570
641
611
628
584
465
676
918
716
601
765
555
267
509
485
163
331
319
-175
-219
98
-13
-198
-21
-122
-314
-74
-98
-312
-155
-1
-175
-328
-20
85
-189
-88
-59
-330
-352
-106
-70
-259
-110
-19
-331
-230
87
-110
-331
-90
-71
-421
-321
-203
-293
-134
-216
-458
-298
-76
-246
-388
-192
-153
-366
-266
-125
-372
-351
-22
-165
-449
-320
-205
-361
-363
-81
-152
-308
3
133
-99
-44
132
-118
-283
63
-36
-447
-322
-355
-411
-122
-257
-532
-389
-258
-491
-473
-149
-275
-426
-387
-554
-888
-725
461
1754
2957
3689
1930
-490
-679
-345
-493
-302
-106
-258
-334
-112
-324
-627
-273
-135
-441
-286
-33
-253
-328
-212
-99
-94
-220
-279
-300
-100
41
-130
-207
-10
-51
-194
115
165
-236
-105
277
53
-18
360
357
2
45
315
187
187
433
350
344
626
618
390
612
676
397
667
827
453
360
609
454
242
467
274
-90
13
57
-123
-256
-31
43
-296
-224
-155
-418
-175
76
-261
-282
10
-187
-284
-19
41
-180
-223
-136
-328
-265
56
-113
-298
-63
-71
-275
-153
100
-56
-363
-121
-55
-351
-126
-53
-393
-227
0
-266
-257
33
-212
-488
-244
-11
-173
-283
-49
-192
-275
-6
-113
-238
-91
-103
-186
-14
111
-50
-88
98
72
-41
142
278
-13
-135
-39
-243
-166
151
-123
-442
-207
-107
-294
-156
-36
-244
-193
-43
-199
-464
-614
-293
707
2008
3291
3585
1834
-87
-572
-535
-240
26
-95
-107
-46
-115
-44
137
-91
-309
42
115
-170
73
307
-195
-284
136
102
79
248
113
-173
-84
175
22
41
433
229
15
293
273
238
395
244
122
285
501
424
183
476
772
402
397
765
522
461
769
585
602
970
819
587
744
787
534
466
628
433
145
320
264
-70
-49
119
61
-63
41
7
-153
-12
92
-132
-67
111
-158
-158
286
137
-318
10
170
-294
-168
191
-17
-85
104
-41
-179
46
187
-53
-188
-51
-80
-147
-2
-20
-237
-51
95
-64
-75
-76
-142
-80
49
-76
-159
-2
-55
-261
-86
125
-168
-234
202
207
-78
55
104
-137
63
412
118
17
267
53
-131
63
109
-224
-183
17
-269
-232
75
-121
-288
-6
39
-129
-168
-268
-529
-521
406
1576
2556
3512
2522
83
-591
-159
-166
-127
2
39
-91
-147
-57
-157
-102
143
91
-63
94
-11
-292
-12
229
61
7
184
110
-33
189
209
87
232
234
108
130
226
150
152
400
353
9
248
619
392
462
540
234
357
723
734
574
573
569
485
708
939
722
719
885
609
441
649
612
491
553
373
68
61
286
305
155
115
-8
-158
22
72
-113
43
213
39
-39
95
132
-113
-73
314
-25
-321
68
134
-74
146
201
-133
86
187
-200
-120
207
28
-188
108
143
-220
-166
18
-64
-81
122
98
-237
-147
22
-86
69
81
-301
-242
144
-2
-252
-67
82
-114
-56
261
73
-28
288
213
27
206
97
-155
15
41
-277
-290
-15
-26
-196
-29
-40
-386
-203
36
-219
-224
-33
-310
-658
-426
170
1083
2432
3328
2524
563
-508
-572
-420
10
58
-278
-183
10
-164
-254
11
-29
-325
-112
48
-261
-187
20
-121
-78
46
-91
-51
191
-29
-300
-63
286
79
-146
167
56
-195
92
204
24
185
541
372
-12
208
256
105
458
582
431
411
527
436
378
793
660
341
715
807
373
362
565
318
231
464
278
24
204
48
-85
116
-135
-394
-207
54
-116
-320
-177
-125
-264
-225
-4
-34
-195
-193
-203
-314
-106
33
-293
-225
-4
-320
-432
-126
-172
-359
44
104
-416
-180
26
-391
-332
13
-142
-304
-95
-142
-466
-340
-29
-255
-271
43
-251
-528
-188
-140
-371
-103
-54
-411
-296
-50
-209
-295
-78
-11
-173
-230
-2
40
-111
-14
-58
-269
-88
44
-388
-450
-212
-419
-349
-190
-383
-513
-370
-247
-463
-298
-71
-538
-755
-463
-70
931
2376
3412
2819
864
-411
-644
-522
-301
-261
-393
-248
-101
-350
-401
-135
-323
-457
-103
-187
-378
-153
-142
-314
-228
-82
-318
-397
-77
-187
-285
29
0
-253
-142
192
32
-260
9
11
-216
79
156
-55
146
207
-12
118
367
270
335
681
382
-56
351
688
425
400
676
497
258
437
376
188
294
377
205
6
-62
-202
-206
-154
-136
-123
-313
-310
-279
-336
-228
-277
-412
-143
41
-395
-450
-138
-404
-420
-6
-214
-401
-78
-113
-437
-415
-234
-298
-309
32
-121
-552
-299
-164
-403
-234
-89
-364
-402
-164
-321
-572
-378
-261
-354
-269
-207
-398
-419
-223
-318
-456
-194
-110
-308
-319
-346
-464
-316
-18
-8
-156
-237
-237
-270
-147
30
-160
-203
-2
-216
-575
-403
-314
-565
-325
-224
-415
-254
-381
-625
-561
-316
-230
-612
-746
-554
-293
701
2124
3310
3061
1155
-366
-836
-541
-338
-554
-365
-197
-411
-439
-190
-237
-602
-522
-302
-387
-260
-76
-303
-519
-279
-285
-570
-355
-134
-341
-288
8
-173
-414
-233
-183
-311
-128
148
-85
-358
-117
-89
-204
114
258
-21
38
305
149
88
272
323
446
508
342
139
297
604
348
306
610
417
71
126
100
-123
13
78
-57
-279
-341
-315
-542
-380
-238
-499
-418
-161
-347
-569
-341
-300
-576
-409
-211
-499
-436
-213
-511
-537
-145
-318
-658
-414
-163
-334
-428
-304
-520
-578
-73
-134
-677
-485
-315
-580
-438
-314
-498
-340
-189
-605
-766
-425
-330
-500
-447
-208
-325
-583
-455
-433
-582
-366
-361
-659
-457
-175
-423
-485
-174
-92
-153
-194
-209
-360
-334
-110
-296
-457
-330
-526
-692
-443
-415
-630
-611
-242
-418
-879
-625
-497
-592
-333
-416
-930
-1049
-512
588
1946
3330
3201
968
-501
-587
-729
-641
-333
-446
-524
-359
-478
-603
-462
-392
-518
-431
-252
-438
-495
-232
-359
-590
-397
-243
-334
-302
-188
-402
-477
-159
-257
-434
-124
31
-162
-183
-60
-213
-207
107
127
35
-1
-16
-108
-3
359
251
178
492
379
118
464
503
223
669
780
176
143
456
257
72
166
82
-132
-94
112
-112
-420
-269
-310
-508
-268
-217
-564
-490
-196
-406
-474
-186
-307
-478
-200
-200
-522
-350
-225
-466
-437
-161
-307
-476
-136
-213
-480
-306
-240
-363
-373
-267
-421
-517
-184
-241
-549
-259
-145
-501
-453
-207
-332
-595
-398
-233
-389
-393
-296
-407
-498
-251
-252
-414
-369
-354
-509
-362
-30
-278
-185
30
-332
-357
5
93
-187
-154
-28
-291
-363
-151
-339
-622
-343
-212
-491
-489
-270
-486
-683
-402
-401
-487
-279
-308
-742
-964
-472
604
1940
3358
3537
1349
-539
-687
-667
-398
-101
-400
-539
-293
-323
-476
-346
-269
-377
-366
-310
-422
-327
-55
-187
-363
-143
-133
-417
-144
138
-343
-381
61
-67
-333
-21
166
-209
-84
208
-94
-197
209
264
14
142
311
232
244
365
117
133
624
542
335
554
650
444
488
811
594
380
577
420
211
393
350
-49
23
210
-231
-325
42
-11
-284
-263
-154
-307
-257
-109
-275
-303
-142
-97
-138
-161
-189
-369
-185
-50
-237
2
5
-445
-487
-86
-25
-227
-113
40
-159
-383
-245
-252
-329
-56
15
-210
-262
-138
-351
-425
-6
-25
-322
-234
-99
-260
-231
-66
-316
-421
-55
10
-363
-330
-155
-283
-265
-121
-142
-65
116
-132
-243
80
142
-7
124
288
12
-203
-69
-184
-386
-200
-108
-338
-343
-174
-481
-512
18
-175
-405
-125
-137
-383
-640
-731
-203
1125
2652
3676
3015
883
-449
-609
-343
-47
-137
-190
-74
-242
-399
-179
-101
-314
-169
104
-175
-396
39
145
-230
-93
-1
-264
-118
92
-109
-152
152
79
-71
128
119
-55
61
237
132
396
494
-90
-148
297
381
147
252
642
375
152
645
636
561
886
772
552
720
705
391
554
781
551
435
580
495
113
60
250
49
-32
167
256
30
-353
-394
-387
-168
184
-83
-318
-58
-189
-383
-14
50
-230
-31
227
-67
-273
-56
-72
-252
-90
7
-291
-207
-7
-312
-308
74
-30
-229
-84
-119
-344
-316
-125
-250
-301
-64
-63
-299
-211
-103
-352
-330
-32
-183
-416
-123
-122
-360
-190
-175
-363
-221
-100
-208
-129
108
39
-182
8
280
35
-136
121
-29
-207
62
-83
-324
-108
-137
-496
-375
-25
-276
-519
-241
-261
-394
-202
-230
-335
-312
-523
-797
-132
1382
2521
3358
3244
1045
-786
-603
-266
-408
-267
-20
-141
-390
-133
-17
-329
-66
54
-360
-319
46
-125
-323
35
171
-244
-137
271
-63
-168
31
-50
-108
68
165
-54
95
335
11
20
511
313
-86
276
564
273
298
513
243
232
662
625
384
671
918
570
498
771
682
732
908
641
426
621
659
442
323
352
276
34
96
101
-84
65
34
-224
-105
27
-149
-111
96
-79
-305
-83
70
-145
0
213
-103
-197
118
92
-161
-15
43
-187
-106
103
-21
-223
-6
-15
-173
170
149
-294
-299
-7
-88
-208
-16
-41
-228
-60
106
-155
-104
38
-259
-230
-11
-112
-248
53
145
-326
-220
97
-170
-178
94
115
-31
19
253
81
129
440
56
-143
191
38
-207
-29
-13
-259
-187
-56
-316
-204
88
-212
-392
-107
76
-129
-223
-298
-757
-302
1313
2543
3407
3432
1494
-366
-481
-57
-135
-68
228
45
-115
14
-45
-186
-35
153
-31
-133
187
108
-138
169
241
7
77
278
197
6
239
274
28
265
392
85
242
483
162
147
462
447
326
542
599
324
536
703
410
548
887
688
625
892
804
664
851
916
780
772
898
941
788
764
741
447
476
682
352
171
272
75
-8
178
182
59
144
243
35
-133
72
114
-76
94
152
-49
277
291
-169
-40
249
104
-40
170
298
121
-50
45
40
52
226
12
-82
138
113
-80
25
163
-84
-132
287
167
-212
148
142
-190
-14
144
-105
-181
99
102
19
191
100
-239
-84
86
-32
122
354
158
-123
176
453
233
248
338
172
137
118
-51
-179
9
92
-150
-85
45
-139
-126
72
-72
-8
356
-5
-573
-446
-155
431
1703
3135
3687
2257
322
-350
-338
-49
146
-35
-42
145
74
-28
123
127
-100
55
421
155
-105
197
177
-54
129
151
-92
132
377
135
115
378
324
231
368
322
98
256
614
352
173
563
480
244
481
554
507
657
750
563
489
730
643
482
776
860
710
923
909
628
725
905
824
610
656
651
138
142
501
185
34
408
271
-81
178
150
-261
-77
157
-76
-137
123
86
-58
166
143
-80
62
258
145
-84
102
99
-140
171
183
-117
74
191
-105
-161
97
54
-45
56
-15
-127
80
67
-211
-101
29
-123
-158
161
146
-302
-189
48
-161
-115
161
-21
-284
41
75
-271
-8
309
74
-149
78
163
-10
276
375
-36
124
247
-268
-312
-21
-160
-297
43
127
-321
-312
-143
-312
-229
91
78
-341
-458
-485
-426
848
2342
3028
3051
1670
-280
-669
-181
-200
-276
-132
22
-148
-300
-14
-114
-355
32
29
-346
-121
63
-201
-170
130
-20
-210
42
120
-133
-121
83
-24
-30
167
-2
-136
145
200
-102
106
472
210
38
223
206
36
373
678
349
356
551
358
392
597
522
608
873
742
387
490
677
449
471
679
342
13
272
336
-3
37
297
-43
-391
-153
-159
-298
-70
-64
-133
7
-100
-398
-345
-10
-51
-213
-122
-155
-356
-273
-9
-136
-323
-122
-105
-214
-33
-101
-317
-224
1
-79
-361
-298
-217
-334
-253
-279
-407
-168
-76
-419
-412
-37
-231
-427
-6
-66
-478
-314
-87
-348
-405
-97
-268
-496
-167
-74
-391
-232
51
-136
24
289
-174
-291
117
14
-331
-252
-133
-426
-452
-149
-243
-367
-153
-135
-381
-435
-309
-455
-476
-76
-319
-1048
-727
335
1237
2643
3763
2488
315
-379
-448
-644
-390
-152
-310
-278
-157
-310
-444
-207
-209
-360
34
12
-450
-270
89
-153
-399
-183
-200
-320
-82
98
-60
-46
68
-195
-173
191
98
-44
136
131
-54
1
219
95
6
326
371
242
444
458
305
539
614
435
510
604
456
350
535
657
493
560
719
370
149
382
185
-104
252
226
-232
-94
42
-266
-306
-76
-122
-283
-185
-149
-374
-244
23
-334
-347
88
-114
-214
46
-97
-367
-193
-81
-310
-211
57
-244
-433
-117
-187
-431
-251
-104
-219
-212
-117
-174
-339
-192
-149
-243
9
-71
-432
-487
-242
-273
-440
-152
-89
-325
-272
-112
-252
-361
-121
-83
-205
-123
-221
-500
-336
26
-96
-203
83
55
-93
1
-12
-150
-49
-22
-408
-482
-136
-127
-460
-311
-150
-423
-376
-171
-277
-406
-115
-169
-679
-628
-511
83
1619
3036
3580
2354
252
-647
-501
-195
-37
-110
-178
-128
-202
-354
-256
-156
-238
-218
-235
-361
-183
-25
-173
-170
-5
-136
-310
-85
-13
-172
8
145
-23
-31
122
17
-129
71
162
-11
126
279
42
160
476
345
226
348
417
355
552
700
340
350
714
612
454
605
718
596
564
680
436
358
613
383
150
255
200
-36
-68
78
-107
-257
-57
-124
-214
44
-26
-299
-145
-69
-248
-201
-63
-154
-306
-151
-52
-324
-227
52
-148
-160
56
-146
-271
62
77
-345
-241
104
-139
-337
-110
-147
-237
-61
-117
-300
-176
55
-103
-228
-58
-205
-360
-115
-111
-231
-12
15
-191
-198
-19
-66
-324
-203
10
-91
-147
-42
-158
-146
146
27
-95
241
329
7
-20
205
63
-69
-55
-211
-241
-105
-88
-151
-70
-99
-320
-251
1
-262
-485
-91
-50
-531
-644
-37
945
2235
3588
3387
1336
-210
-291
-269
-344
-126
-223
-279
4
-76
-299
-179
-95
-322
-221
87
-15
-41
78
-182
-233
119
39
-280
-139
85
-114
-31
252
27
-131
91
183
59
119
209
47
178
532
257
-3
367
451
220
406
591
300
326
743
618
447
769
719
433
650
796
533
503
719
564
285
467
595
307
97
42
-115
-92
137
-132
-338
6
-63
-334
-138
32
-190
-256
-53
-46
-102
-150
-122
-134
-113
-16
-272
-299
-15
-109
-278
-68
-49
-368
-285
38
-63
-265
-23
-141
-448
-80
-23
-351
-257
-78
-160
-278
-163
-203
-300
-121
-85
-149
-150
-163
-238
-258
-113
-240
-368
-140
-122
-218
-158
-167
-361
-209
55
-57
-59
25
-42
-86
86
145
-39
-4
136
-41
-203
-68
-156
-340
-125
-135
-461
-428
-93
-86
-373
-285
-192
-393
-186
-48
-645
-921
-287
689
1771
3228
3671
1733
-308
-530
-266
-303
-142
-141
-263
-81
-54
-400
-378
-51
-216
-282
8
-187
-360
-99
-75
-251
-91
27
-164
-167
-22
-86
-159
136
158
-77
107
141
-140
-96
228
166
-61
188
338
67
188
406
196
276
500
421
322
567
672
347
492
729
449
427
693
618
506
669
630
381
401
393
174
136
241
89
-197
-53
17
-332
-293
-96
-228
-225
-78
-274
-324
-4
-124
-346
-140
-36
-174
-174
-29
-109
-381
-111
61
-367
-273
4
-211
-203
138
-36
-372
-188
-108
-344
-140
172
-235
-386
-16
-153
-439
-268
-124
-236
-181
-92
-309
-294
-43
-221
-408
-100
62
-302
-262
-55
-320
-267
-143
-299
-382
-230
-1
-183
-146
182
98
45
181
36
-126
-18
-37
-194
-179
-112
-265
-335
-201
-259
-349
-169
-184
-470
-198
77
-266
-262
-109
-560
-867
-335
682
1823
3357
3845
1665
-384
-461
-301
-283
-61
-42
-290
-277
-95
-287
-293
139
-30
-459
-230
-61
-239
-127
94
-75
-139
70
-41
-274
-24
152
-102
66
260
-130
-95
192
65
3
188
283
161
228
246
34
109
324
369
431
509
447
371
517
630
447
457
738
768
691
674
582
444
528
752
679
424
303
198
22
85
113
-42
16
55
-200
-241
-78
-172
-191
-77
-135
-234
-113
-25
-266
-222
51
-174
-332
-48
-20
-263
-137
0
-232
-215
-45
-172
-235
-21
0
-325
-315
-64
-232
-307
-64
-174
-293
-59
-122
-359
-186
6
-281
-371
-118
-256
-408
-75
-76
-526
-260
61
-404
-431
-47
-269
-356
-10
-185
-425
-126
28
-160
-178
135
126
-180
36
147
-170
-50
41
-406
-387
6
-315
-546
-154
-230
-622
-351
12
-350
-387
-1
-220
-656
-724
-663
-125
1192
2587
3595
3034
930
-546
-623
-195
-23
-264
-328
-139
-318
-352
-121
-309
-392
51
-16
-366
-47
100
-288
-290
-9
-199
-282
87
-44
-331
-100
80
-136
-25
337
47
-96
141
120
6
191
334
10
-10
234
193
176
379
496
314
497
780
506
360
580
629
538
759
784
483
665
756
370
399
645
392
226
331
150
-155
-58
162
-92
-107
53
-208
-324
-159
-108
-260
-177
-47
-263
-198
92
-29
-259
-146
-67
-188
-16
87
-206
-200
-42
-226
-236
26
-85
-319
-121
44
-183
-247
-15
-157
-338
-75
-51
-281
-229
-145
-266
-234
-96
-199
-226
-27
-129
-313
-152
-24
-277
-316
-44
-217
-346
-60
-58
-284
43
199
-223
-105
234
140
6
111
24
-205
28
208
-109
-296
-173
-211
-257
-93
-212
-453
-187
-14
-358
-300
24
-136
-444
-446
-500
-372
938
2436
3501
3592
1575
-488
-622
-113
-86
-129
-15
8
-308
-292
28
-140
-179
46
-139
-285
-45
141
38
98
197
-118
-252
153
284
-80
97
248
38
159
221
54
3
270
414
169
220
446
321
282
440
385
375
589
490
334
704
854
552
723
858
675
667
825
938
699
735
940
617
465
735
563
196
363
404
137
184
264
-19
-98
221
110
-211
-10
93
-80
-12
-41
-118
15
109
-6
-47
160
41
-193
-4
178
-89
-46
250
-140
-257
132
60
-84
127
78
-198
-92
136
63
-202
-163
-34
-171
-110
144
-48
-184
128
-10
-214
16
120
-129
-202
-7
-195
-203
87
-81
-266
110
295
-35
152
272
-48
112
328
107
-13
215
23
-395
-184
41
-144
-187
3
-102
-316
-132
-92
-173
9
-72
-281
-349
-373
-212
395
1587
2805
3371
2346
308
-622
-307
5
-119
-113
121
-90
-241
21
21
-146
-99
123
18
-108
125
-26
-173
161
210
-50
-53
139
86
57
389
222
-187
123
389
112
86
314
205
144
351
435
233
230
452
327
376
551
499
652
744
594
499
727
921
629
580
858
743
564
807
798
478
542
587
452
460
416
196
121
372
139
-265
5
62
-141
-2
156
56
-89
37
76
-71
188
197
-229
-116
185
-26
-222
64
124
-49
243
231
-302
-137
234
85
-27
-35
-65
-166
4
117
-116
53
132
-183
-206
38
50
-158
-64
-17
-287
-170
155
32
-166
-75
-168
-271
26
108
-132
6
203
-50
-86
193
216
55
82
66
-85
-84
-69
-161
-265
-156
-158
-318
-31
27
-367
-360
-177
-180
-233
-178
-346
-681
-175
927
1847
3026
3405
1380
-582
-594
-399
-384
-50
96
-223
-279
-48
-181
-180
-2
-210
-366
-140
-4
-120
-134
-2
-77
-123
59
-90
-279
-27
90
-77
-36
180
68
-130
35
154
12
101
187
-32
69
353
269
93
303
376
211
470
650
474
530
648
418
371
654
675
518
684
756
416
432
763
486
187
425
261
-64
47
72
-107
-17
149
-125
-301
-101
-70
-143
-67
-66
-200
-240
-82
-96
-221
-6
-55
-354
-138
-7
-307
-245
146
2
-296
-75
-118
-235
57
92
-220
-271
-92
-306
-384
-79
-96
-217
-72
-79
-369
-307
-22
-78
-269
-154
0
-307
-326
-244
-387
-137
-29
-307
-299
-10
-79
-257
-83
186
63
-106
75
-59
-144
66
-113
-321
-109
-159
-509
-360
-144
-304
-231
-115
-301
-392
-308
-308
-519
-373
-183
-630
-572
605
1835
2832
3457
2049
-273
-700
-204
-275
-420
-279
-293
-345
-65
-180
-431
-171
-133
-392
-341
-114
-197
-367
-154
-21
-255
-244
-73
-248
-260
25
-101
-200
35
98
-86
-233
-65
-73
-81
205
51
-158
131
294
86
127
324
227
212
392
562
367
314
513
259
356
702
656
571
725
589
191
450
568
124
232
467
-142
-363
66
-116
-309
-23
-119
-308
-68
-82
-311
-392
-213
-148
-447
-147
36
-460
-338
-132
-386
-286
-95
-183
-149
-141
-152
-250
-368
-159
-352
-428
-32
-204
-442
-275
-230
-366
-239
-15
-260
-462
-292
-331
-379
-130
-233
-536
-312
-134
-396
-458
-271
-287
-399
-189
-69
-404
-457
-133
-235
-322
-83
-126
-161
17
-66
-225
-83
-24
-129
-223
-287
-348
-504
-333
-213
-473
-326
-180
-474
-352
-148
-450
-511
-267
-412
-778
-711
-12
1133
2458
3603
2780
366
-503
-306
-490
-362
-171
-385
-415
-177
-312
-547
-303
-207
-528
-342
-70
-333
-329
-45
-193
-422
-92
24
-254
-198
-96
-277
-352
-126
-99
-256
-31
161
-123
-127
119
-41
-95
164
276
97
98
225
27
90
404
336
309
532
455
359
585
541
441
716
612
293
306
507
448
206
311
211
-99
-99
-23
-184
-252
-24
-140
-313
-190
-131
-295
-363
-196
-336
-377
-210
-281
-355
-226
-132
-339
-315
-109
-293
-350
-57
-135
-425
-263
-179
-427
-278
-74
-372
-470
-223
-278
-474
-271
-123
-344
-225
-71
-405
-404
-59
-250
-555
-332
-247
-439
-361
-251
-458
-486
-197
-194
-353
-230
-83
-249
-292
-9
-104
-260
81
74
-182
-189
-243
-345
-325
-225
-385
-450
-187
-289
-513
-368
-425
-568
-335
-101
-354
-656
-335
-468
-1031
-800
-34
1017
2360
3620
2958
468
-694
-493
-446
-413
-313
-346
-332
-241
-402
-521
-284
-392
-491
-90
-161
-502
-358
-160
-282
-411
-233
-62
-261
-260
-164
-324
-219
-45
-236
-230
0
-164
-227
46
126
-139
-72
136
-104
48
340
182
81
194
364
243
225
573
438
361
722
493
282
688
744
309
285
542
408
232
266
170
-42
41
10
-210
-33
-81
-430
-385
-201
-313
-390
-163
-182
-531
-471
-222
-268
-236
-117
-274
-440
-272
-266
-421
-291
-72
-275
-462
-108
-162
-510
-285
-139
-427
-492
-190
-228
-401
-264
-336
-456
-244
-218
-445
-331
-206
-335
-292
-278
-367
-424
-299
-146
-432
-437
-240
-497
-382
-53
-175
-321
-221
-16
-102
-227
-54
-108
-161
-38
-130
-287
-189
-34
-418
-492
-93
-490
-643
-27
-191
-674
-308
-202
-539
-302
-214
-563
-668
-661
-657
5
1483
2865
3385
2440
509
-695
-653
-287
-333
-377
-159
-310
-608
-329
-130
-451
-438
18
2
-492
-384
-160
-389
-56
174
-366
-459
-111
-150
-273
-43
-82
-287
37
58
-227
27
223
-25
-95
227
196
-97
53
347
374
90
161
332
179
417
479
288
486
661
501
431
699
609
357
663
796
459
433
486
197
33
166
41
-125
114
-54
-334
-62
-61
-347
-298
-224
-286
-326
-135
-13
-374
-368
-131
-307
-249
-41
-222
-382
-83
13
-245
-146
-117
-399
-367
-142
-266
-338
-158
-186
-227
-231
-268
-356
-378
-79
-161
-471
-294
-252
-315
-171
-246
-511
-495
-128
-128
-381
-297
-210
-347
-175
-20
-418
-429
-66
-65
-204
-53
-36
-268
-74
95
-232
-214
10
-153
-167
-155
-412
-429
-154
-250
-543
-507
-281
-377
-526
-239
-235
-474
-355
-399
-782
-853
-101
1084
2089
3489
3365
649
-741
-331
-427
-522
-196
-178
-431
-331
-135
-412
-360
-79
-438
-466
-111
-228
-399
-220
-135
-332
-271
-90
-230
-174
-44
-251
-319
-37
-13
-221
116
353
-125
-313
-52
-35
-17
236
287
87
123
237
128
201
446
492
322
395
587
381
451
670
415
439
869
740
429
625
496
209
396
368
20
0
10
-207
-252
-18
80
-243
-327
-142
-274
-307
-147
-304
-455
-251
-117
-261
-279
-166
-374
-320
73
-154
-263
13
-221
-519
-318
-59
-230
-370
-77
-162
-411
-187
-255
-463
-178
57
-206
-373
-315
-414
-444
-235
-194
-400
-280
-165
-453
-364
8
-267
-399
-81
-283
-448
-137
-124
-319
-158
144
10
-394
-29
152
-358
-162
106
-258
-394
-234
-255
-382
-222
-168
-545
-559
-273
-276
-390
-255
-295
-537
-405
-452
-824
-819
80
1409
2679
3774
2640
-25
-697
-357
-441
-238
-171
-390
-399
-184
-291
-458
-327
-364
-319
-24
-161
-504
-353
-67
-180
-371
-115
46
-357
-414
-159
-159
-25
10
-215
-252
31
184
-111
-72
192
-52
-36
205
51
133
387
235
31
198
511
392
232
411
386
349
603
500
248
658
802
356
334
588
599
322
164
133
-172
-184
-5
-221
-266
45
-125
-569
-278
-104
-458
-378
-174
-367
-458
-254
-395
-505
-157
-70
-371
-375
-186
-323
-291
-139
-301
-412
-326
-251
-328
-275
-133
-318
-349
-227
-346
-302
-129
-315
-569
-356
-156
-411
-505
-206
-232
-435
-255
-254
-417
-170
-54
-385
-487
-242
-238
-340
-108
-128
-384
-230
-25
-172
-87
204
-142
-301
45
21
-219
-250
-275
-435
-370
-198
-351
-453
-95
-36
-502
-547
-285
-442
-448
-137
-426
-837
-550
114
1192
2808
3722
2332
56
-553
-433
-515
-213
-123
-279
-232
-231
-392
-340
-86
-213
-336
-97
-221
-357
-122
-60
-155
-216
-132
-190
-260
-19
72
-152
-56
154
-271
-264
147
-87
-50
291
150
7
231
199
-110
40
441
348
43
404
526
143
386
611
439
584
713
497
451
593
689
582
629
737
332
301
523
244
-17
82
177
-81
-187
-57
-194
-259
-47
-210
-223
91
-226
-335
34
-72
-340
-258
94
-122
-389
-48
-158
-303
-50
-81
-271
-177
151
-81
-382
-139
-246
-440
-166
35
-261
-291
-38
-281
-372
-109
-38
-89
-182
-268
-411
-357
-82
-279
-505
-90
-106
-487
-268
-59
-91
-148
-84
-168
-303
-4
56
-131
168
164
-302
-351
-137
-43
-346
-383
-252
-423
-262
-132
-429
-467
-202
-255
-329
-156
-352
-643
-380
-267
227
1639
3026
3320
1628
-281
-695
-520
-294
26
-86
-416
-291
-251
-274
-19
-183
-457
-232
-103
-371
-111
329
-195
-498
-91
-14
-260
-132
30
-127
-23
219
70
-338
-36
296
-137
-64
285
8
-114
197
205
61
287
401
125
353
625
308
316
599
384
253
640
621
399
645
815
500
448
667
448
245
327
285
-27
-18
132
-143
-153
116
-9
-112
67
-12
-268
-208
-22
-206
-206
-26
-194
-186
25
-97
-338
-65
81
-232
-199
-37
-184
-117
170
-66
-304
-85
36
-235
-225
173
-178
-510
-92
-110
-410
-175
140
-108
-325
-180
-282
-248
-64
-127
-304
-212
-79
-285
-90
81
-233
-247
76
-15
-283
117
294
-107
-129
-29
-177
-241
-122
-197
-346
-250
-257
-292
-178
-289
-449
-401
-225
-186
-325
-123
-206
-939
-850
413
1510
2499
3437
2235
-181
-844
-485
-433
-233
128
-157
-512
-212
-217
-525
-293
-75
-213
-196
-89
-248
-309
-104
-159
-76
61
-236
-378
-186
55
-31
-219
-25
-45
-209
103
191
-124
124
264
-137
-108
250
213
21
338
541
159
174
415
278
379
588
516
485
703
690
306
427
806
522
393
797
538
136
285
155
-183
-125
108
-4
-112
31
-74
-384
-255
-39
-236
-200
-1
-190
-329
-193
-288
-480
-239
77
-141
-276
-108
-231
-238
-22
-145
-314
-139
-205
-387
-304
-80
-132
-403
-222
-176
-310
-128
-202
-468
-312
-151
-369
-266
21
-218
-465
-244
-173
-413
-370
-177
-133
-126
-187
-367
-414
-62
137
-199
-188
73
-103
-221
-100
-122
-351
-279
-84
-351
-381
-214
-323
-361
-219
-342
-606
-333
-168
-435
-330
-298
-763
-916
-317
897
1897
2931
3393
1445
-413
-465
-501
-403
-21
-245
-496
-256
-186
-236
-279
-337
-298
-412
-305
-225
-371
-137
-30
-279
-261
-28
-112
-277
-25
-109
-455
-137
-35
-306
-170
40
-94
-168
171
82
-152
298
298
-113
109
369
147
128
444
320
101
372
606
437
382
599
692
535
531
533
338
522
612
263
215
370
60
-217
9
-20
-253
-59
-70
-273
-145
-127
-253
-364
-189
-88
-377
-224
-132
-447
-380
-180
-260
-290
-35
-130
-361
-185
-184
-354
-311
-67
-255
-380
-25
-219
-541
-348
-150
-289
-245
-42
-239
-281
-81
-318
-524
-257
-114
-427
-523
-231
-290
-394
-200
-230
-386
-202
-153
-389
-211
11
-201
-315
-44
78
-181
-189
-60
-211
-226
-92
-119
-233
-356
-390
-427
-350
-294
-489
-429
-149
-369
-603
-314
-310
-612
-486
-433
-517
490
2091
3142
3085
1541
-269
-814
-392
-138
-329
-320
-98
-158
-333
-335
-356
-386
-89
-17
-398
-472
-190
-287
-423
-125
-61
-169
-158
-147
-254
-254
-53
-103
-26
269
17
-351
-116
30
-211
-24
270
125
185
309
118
-9
181
393
205
358
893
476
83
589
596
288
526
712
637
644
611
431
301
395
422
144
295
578
6
-314
-165
-387
-357
-15
-73
-196
-17
-110
-469
-375
-103
-275
-287
195
62
-490
-316
-139
-362
-318
-26
-148
-303
-105
-158
-239
-97
-89
-278
-134
11
-434
-518
-108
-166
-297
-90
-79
-281
-176
-132
-475
-434
-77
-129
-452
-335
-116
-343
-278
-16
-324
-364
-77
-270
-398
-212
-87
-170
-79
135
-18
-91
66
-77
-306
-40
190
-282
-507
-172
-246
-517
-270
-130
-519
-339
-73
-466
-365
-100
-386
-531
-485
-723
-441
987
2465
3390
3099
1081
-518
-539
-117
-116
-419
-403
-180
-204
-371
-281
-224
-395
-233
-90
-365
-152
75
-340
-288
41
-172
-305
-67
-123
-295
-53
57
-229
-142
117
-125
-180
210
191
-24
238
316
-40
-80
210
224
120
475
547
113
184
502
408
457
652
589
648
693
530
432
598
765
535
313
483
371
135
201
125
-59
150
161
-272
-200
-17
-140
-174
-35
-241
-517
-140
-75
-426
-218
29
-122
-211
20
-21
-365
-235
-152
-245
-128
-71
-148
-179
-27
-103
-461
-361
-127
-311
-295
-123
-284
-253
-55
-265
-350
-23
-31
-387
-432
-238
-265
-340
-120
-59
-324
-371
-208
-229
-233
31
-192
-547
-137
-19
-295
-46
109
-93
-9
142
10
-22
185
-29
-499
-324
-125
-408
-303
31
-247
-518
-222
-271
-422
-101
-206
-502
-495
-541
-752
-527
723
2008
3021
3556
2025
-186
-572
-333
-486
-369
-134
-119
-279
-343
-235
-337
-372
-142
26
-97
-293
-238
-245
-137
-102
-166
-32
-14
-222
-223
123
31
-334
-105
214
29
-54
171
185
-45
76
201
72
254
394
252
166
295
289
291
620
605
293
503
707
419
530
905
714
398
649
850
523
471
600
465
324
277
115
-19
158
-20
-326
49
127
-366
-167
192
-217
-363
10
-142
-327
-43
-7
-235
-224
34
-90
-409
-120
51
-178
1
39
-293
-311
-129
-184
-179
109
-43
-388
-247
-110
-220
-143
-28
-236
-278
-115
-249
-336
-134
-53
-203
-218
-154
-357
-386
6
-15
-383
-285
-127
-316
-315
102
-41
-380
104
34
-360
90
292
-102
-155
-3
-144
-104
133
-77
-510
-286
-69
-510
-471
-93
-351
-542
-200
-88
-432
-400
-168
-619
-857
-371
502
1616
3133
3730
1732
-237
-470
-436
-269
-86
-259
-350
-186
-224
-281
-56
-200
-486
-342
-62
-25
-277
-226
-133
-274
-105
-31
-315
-132
247
-169
-352
16
-48
-129
217
193
-121
64
131
-55
-69
265
501
46
49
348
153
312
643
383
253
577
522
284
525
764
614
595
732
625
553
648
508
275
462
599
168
56
141
-143
-228
10
93
-185
-228
-98
-316
-247
21
-156
-249
51
-45
-443
-288
36
-122
-223
-69
-223
-328
-121
-168
-280
-38
90
-231
-326
-32
-126
-326
-59
-51
-380
-181
-23
-364
-391
-56
-179
-419
-177
-131
-327
-219
-55
-272
-408
-124
-210
-357
-73
-231
-388
-170
-151
-292
-167
88
-271
-350
165
104
-113
98
118
-134
-118
89
-99
-418
-166
11
-295
-255
-281
-518
-284
-123
-403
-428
-85
-163
-422
-359
-582
-842
25
1565
2681
3515
2931
569
-777
-527
-252
-306
-69
153
-249
-452
-123
-66
-318
-278
-171
-205
-156
-101
-251
-366
12
283
-221
-251
91
-171
-129
131
40
-106
-2
123
-26
121
237
-75
99
412
189
-95
221
440
174
347
515
324
362
636
549
399
702
703
444
567
726
569
528
818
733
491
698
613
309
385
371
28
105
341
-78
-322
-27
-38
-141
103
51
-225
-273
-150
-58
-10
76
11
-144
-17
-5
-253
-88
142
-23
-203
-69
-14
-87
63
17
-237
-94
270
5
-355
-32
99
-310
-227
26
-217
-102
109
-198
-218
-34
-161
-184
-45
-70
-165
-97
-10
-94
-154
-36
-130
-147
67
-41
-137
4
201
149
35
349
128
-292
-17
85
-255
-282
-63
-253
-375
-15
47
-381
-254
-22
-351
-169
138
-303
-698
-603
-484
193
1741
3120
3555
2136
68
-588
-544
-199
83
-274
-189
-44
-386
-151
74
-195
-243
-27
-11
-225
14
113
-310
-219
19
-166
-142
143
131
-95
12
39
-213
56
357
40
-78
248
173
-33
237
226
-117
233
600
170
121
561
477
219
445
637
405
455
726
524
411
891
821
517
802
618
290
454
498
214
142
383
251
-134
-43
99
-214
-113
182
-247
-471
-47
-19
-261
4
27
-331
-221
-36
-49
-31
-113
-210
-200
-47
-91
-305
-189
33
-37
-283
-78
67
-312
-218
4
-220
-242
-19
-106
-312
-228
-128
-304
-186
166
-180
-366
9
-164
-424
-65
-104
-351
-57
-213
-457
-115
92
-2
-53
-42
-114
-115
190
289
-82
-64
222
-7
-355
-142
-51
-358
-281
-60
-255
-407
-147
-150
-307
24
-38
-420
-290
-357
-701
-176
1183
2158
2942
2967
1073
-657
-495
-53
-376
-296
-43
-312
-259
67
-119
-374
-112
-46
-109
8
-130
-154
-3
-15
-97
-146
22
49
-210
-115
215
54
-241
138
340
-93
-108
109
0
106
394
183
6
350
336
93
446
585
197
302
539
256
295
698
518
323
588
726
749
652
604
621
400
502
483
176
336
318
-25
-43
123
-139
-253
23
-97
-95
16
-209
-296
-145
26
-78
-223
-122
-193
-290
-152
56
-44
-261
-195
-271
-288
44
-49
-356
-115
-12
-300
-229
13
-166
-310
-86
-149
-474
-267
26
-229
-342
-242
-297
-317
-159
-215
-332
-43
-86
-450
-421
-162
-232
-269
-163
-308
-384
-143
83
-155
-220
25
-42
-162
20
-44
-280
86
3
-579
-477
-167
-333
-519
-259
-251
-484
-228
-149
-527
-306
-95
-524
-839
-495
553
1522
2632
3385
1843
-205
-540
-511
-395
-8
-287
-532
-184
-125
-444
-218
52
-317
-426
-108
-199
-426
-251
-52
-9
-200
-240
-275
-382
-16
14
-234
56
165
-251
-283
97
-29
-156
340
300
-157
-23
22
-100
159
390
317
371
449
292
181
306
488
393
443
737
576
370
618
592
265
378
670
473
324
346
-30
-166
72
-75
-289
-13
68
-201
-103
-159
-580
-425
1
-118
-367
-233
-93
-300
-351
-197
-260
-253
-33
-17
-174
-217
-207
-324
-409
-157
-191
-336
-71
-135
-337
-163
-171
-444
-375
-193
-225
-101
17
-389
-625
-290
-198
-331
-242
-228
-434
-346
-126
-268
-422
-263
-129
-332
-336
29
-170
-417
-93
1
-96
-57
81
-109
-304
-94
-261
-497
-243
-103
-399
-475
-296
-454
-442
-198
-319
-461
-377
-342
-436
-467
-555
-717
115
1562
2594
3372
2592
445
-709
-563
-185
-337
-402
-9
-171
-492
-239
-176
-409
-230
-44
-336
-378
-89
-111
-234
-83
-92
-320
-164
-63
-283
-154
58
-89
-184
88
92
-223
14
98
-178
-23
241
127
-9
188
223
101
327
408
124
234
574
473
386
600
527
400
643
686
482
626
827
584
332
490
442
107
210
341
54
-143
-93
-184
-282
-41
-20
-259
-112
-66
-230
-128
-99
-285
-342
-87
-48
-236
-151
-161
-355
-264
22
-122
-355
-75
64
-323
-299
-7
-254
-254
11
-169
-326
-207
-98
-220
-291
-87
-118
-262
-182
-258
-333
-121
-194
-402
-166
-144
-433
-220
12
-291
-380
-1
21
-329
-76
181
-89
-6
115
-98
-148
69
14
-346
-279
-130
-411
-378
-124
-407
-501
-149
-209
-377
-265
-277
-512
-401
-104
-575
-978
-306
737
1691
3041
3668
1773
-320
-354
-276
-541
-200
-141
-402
-213
-72
-411
-316
25
-282
-537
-167
-53
-345
-103
29
-300
-276
-76
-151
-199
-43
-106
-215
-16
160
-75
-224
23
-64
-142
174
233
75
145
181
1
76
368
259
181
478
542
388
345
507
401
326
679
621
511
786
683
486
622
553
285
242
397
382
77
-10
-21
-214
-106
-17
-314
-333
-13
-255
-370
-27
-148
-255
-162
-222
-347
-240
21
-129
-307
31
-59
-423
-171
-75
-315
-286
17
-115
-462
-197
-116
-388
-235
-99
-264
-328
-102
-139
-382
-105
-133
-436
-183
-206
-408
-304
-209
-275
-437
-199
-140
-423
-152
-17
-448
-451
-55
-140
-173
178
-16
-336
-27
195
-92
-58
133
-100
-310
-193
-139
-391
-374
-192
-237
-342
-320
-397
-490
-203
-165
-437
-175
-178
-754
-859
-563
245
1433
2918
3804
2310
220
-435
-573
-448
5
-191
-368
79
-165
-556
-312
-269
-328
-197
-56
-154
-376
-74
7
-309
-100
-15
-218
-41
115
-159
-359
-59
44
-208
57
321
-17
-145
90
104
44
259
435
191
47
260
195
213
458
332
383
611
407
315
695
809
490
448
838
940
527
495
489
264
441
415
151
267
241
-187
-236
29
14
-106
-98
-116
-228
-205
-82
-262
-344
-84
-53
-272
-215
23
-215
-412
-118
-61
-230
-67
39
-306
-213
4
-316
-216
5
-259
-334
-149
-193
-404
-204
23
-151
-226
-184
-335
-447
-64
9
-394
-244
-161
-430
-304
-174
-339
-311
-48
-120
-365
-254
-113
-222
-212
-9
-63
-172
69
-8
-199
105
75
-214
-47
193
-42
-351
-350
-317
-388
-255
-235
-551
-462
-149
-274
-541
-264
-122
-375
-366
-568
-876
-346
1089
2346
3329
3284
1134
-673
-583
-178
-201
-240
-249
-320
-377
-135
2
-306
-265
18
-172
-429
-328
-283
-267
-2
12
-158
-73
-76
-297
-286
-58
-109
-173
174
140
-235
-27
200
4
189
449
70
-200
94
202
85
314
323
73
224
503
486
498
685
629
354
460
722
567
620
821
537
381
671
619
219
207
332
162
82
233
-47
-391
-101
45
-236
-140
-5
-187
-130
-1
-237
-433
-63
-8
-304
-65
65
-296
-279
15
-134
-292
-2
3
-292
-145
-83
-365
-293
177
-4
-476
-154
-63
-397
-144
44
-323
-363
-65
-179
-365
-118
-174
-418
-220
-114
-222
-102
-37
-363
-395
-49
-154
-411
-138
-14
-275
-227
-12
-73
18
349
104
-252
-30
59
-86
-38
-54
-229
-370
-297
-333
-375
-43
-171
-563
-366
-252
-503
-356
-115
-273
-528
-696
-646
-245
913
2586
3796
3127
847
-648
-773
-415
-203
-219
-208
-190
-318
-433
-197
12
-226
-308
-144
-350
-346
-113
-251
-271
-79
-121
-260
25
60
-420
-184
233
-22
-210
25
68
-69
119
148
-138
-26
285
161
202
358
169
73
251
452
336
331
631
563
399
645
625
374
533
800
688
579
694
578
527
690
485
129
215
247
-72
-151
-28
-113
-118
23
-172
-402
-166
-43
-275
-209
187
-43
-526
-213
-132
-426
-86
219
-182
-324
-24
-119
-278
82
127
-379
-248
-58
-360
-236
91
-213
-479
-141
-130
-352
-16
4
-500
-350
-98
-349
-371
-87
-113
-401
-244
-164
-388
-160
34
-210
-447
-176
-59
-515
-350
29
-215
-156
177
-9
-185
153
212
-33
144
91
-147
-157
-222
-312
-417
-202
-109
-395
-302
-132
-345
-351
-66
-176
-357
-144
-182
-613
-763
-405
255
1347
3018
3812
2237
229
-418
-583
-375
-47
-202
-240
6
-70
-429
-166
16
-300
-92
48
-176
-77
103
-129
-280
42
55
-285
65
218
-263
-87
291
68
-147
233
388
1
34
295
71
-31
418
538
122
154
405
306
366
554
401
376
673
585
527
844
873
544
592
802
649
758
942
598
312
516
559
242
234
256
78
206
157
-177
-284
63
172
-254
-150
75
-160
-145
35
-128
-170
100
-21
-333
-85
63
-277
-225
88
-23
-177
146
160
-187
33
19
-384
-178
36
-374
-481
-37
29
-273
-204
29
-170
-275
12
-140
-287
80
-119
-485
-202
21
-257
-413
-40
-90
-445
-131
-9
-356
-94
166
-270
-240
146
113
64
145
105
-122
-98
8
-206
-268
-146
-236
-270
-150
-223
-357
-343
-282
-355
-355
-115
-149
-309
-157
-314
-972
-604
944
1955
2937
3469
1437
-660
-491
-225
-506
-331
-68
-186
-124
43
-316
-434
-46
-94
-208
-36
-161
-276
-225
-97
71
-60
-135
-118
-194
12
120
-164
-84
168
-58
-133
61
129
107
152
235
59
121
349
96
20
367
408
137
328
594
413
344
515
577
398
611
826
558
596
665
496
413
565
490
168
306
324
-63
-12
119
-27
-10
-56
-94
-159
-180
-134
-309
-93
19
-316
-188
-124
-331
-262
-92
-113
-164
-48
-188
-397
-261
41
9
-288
-104
4
-328
-261
-50
-273
-88
88
-498
-592
-139
-105
-371
-237
-61
-350
-333
-92
-226
-224
-140
-373
-516
-324
-150
-314
-380
-84
-203
-486
-250
-162
-339
-140
126
-103
-174
96
-59
-199
2
-120
-308
-162
-64
-306
-468
-274
-369
-540
-348
-319
-490
-289
-184
-569
-500
-231
-534
-787
-561
-259
467
1900
3137
2951
1226
-329
-669
-548
-377
-313
-506
-275
-1
-343
-535
-299
-316
-449
-283
-163
-193
-195
-258
-411
-420
-200
0
-186
-293
-214
-263
-54
-1
-256
-199
187
45
-310
-43
19
-204
-24
283
38
-219
149
286
100
306
400
129
272
592
430
280
559
541
438
730
469
130
428
518
261
317
474
133
-75
223
102
-310
-211
16
-124
-335
-263
-381
-505
-240
-225
-376
-237
-155
-405
-454
-199
-324
-299
266
-80
-728
-378
-127
-354
-359
-182
-257
-329
-133
-197
-465
-258
2
-330
-517
-260
-326
-492
-254
-237
-462
-216
-80
-418
-412
-189
-277
-413
-166
-40
-414
-422
-267
-373
-297
-181
-381
-521
-90
44
-221
-47
65
-92
-59
77
-7
-203
-103
-33
-364
-352
-141
-348
-437
-209
-294
-538
-287
-161
-402
-289
-178
-455
-521
-451
-783
-779
458
1743
2573
3603
2717
86
-773
-286
-308
-404
-162
-151
-518
-354
-51
-281
-285
-142
-348
-491
-183
35
61
104
-166
-426
-349
-157
-104
-152
-63
-68
-321
-113
180
-31
16
148
79
-92
7
264
-60
-60
317
100
3
349
307
111
411
558
322
571
718
355
505
708
395
394
734
724
533
600
570
242
173
387
196
-46
16
-92
-243
-77
0
-332
-295
-21
-206
-373
-96
-47
-428
-245
5
-330
-348
-95
-207
-292
-135
-205
-379
-232
-59
-228
-285
-32
-179
-429
-123
-40
-299
-225
-85
-316
-448
-230
-304
-321
-125
-192
-348
-228
12
-295
-498
-214
-241
-274
-198
-333
-385
-231
-188
-308
-268
-147
-239
-406
-119
70
-302
-265
56
30
114
128
-89
-95
7
-98
-311
-263
-23
-239
-561
-329
-385
-475
-194
-192
-361
-350
-256
-305
-345
-353
-528
-783
-134
1297
2396
3545
3155
612
-673
-352
-314
-353
-137
-253
-421
-174
-113
-202
-230
-210
-359
-538
-222
-174
-381
-119
85
-219
-258
-9
-273
-339
-10
-45
-199
-22
146
-161
-217
69
-59
-31
410
232
-219
56
243
57
245
390
90
198
591
485
258
432
704
494
453
680
526
507
709
525
396
594
590
332
340
470
101
-19
227
68
-84
-106
-194
-307
-336
-162
-256
-283
60
-128
-503
-234
-9
-312
-369
24
-26
-289
-261
-340
-379
-115
24
-281
-401
-125
-49
-216
-174
-74
-297
-374
-219
-319
-342
-62
-223
-461
-233
-230
-373
-291
-240
-338
-210
-58
-377
-485
-208
-205
-321
-149
-31
-351
-496
-259
-376
-473
-22
142
-178
-172
-51
-265
-204
127
97
-164
11
76
-274
-138
-135
-472
-347
-74
-217
-535
-351
-255
-479
-288
-281
-521
-395
-116
-294
-680
-592
-535
251
2055
3386
3476
1828
-129
-709
-533
-295
-171
-336
-313
-123
-392
-423
-168
-433
-463
6
-40
-331
-52
74
-415
-453
-147
-225
-112
-22
-303
-356
-134
-19
-74
35
186
-65
-214
140
164
-73
148
216
-99
32
338
195
148
532
511
193
427
558
300
378
732
666
475
651
603
436
612
709
524
440
478
392
283
229
60
-124
-81
-51
-178
-260
-118
-153
-355
-140
-70
-311
-86
72
-365
-377
-73
-210
-294
-5
-116
-377
-67
-15
-370
-275
42
-125
-299
-159
-262
-327
-29
30
-328
-401
-76
-177
-398
-98
-40
-292
-305
-210
-180
-308
-319
-277
-234
-107
-260
-381
-152
-43
-274
-299
-73
-195
-398
-217
-88
-271
-193
-23
-251
-162
173
26
-144
75
96
-130
-78
-1
-247
-294
-3
-232
-545
-253
-198
-379
-244
-267
-475
-430
-301
-276
-262
-399
-728
-744
13
1119
2239
3453
3360
1146
-671
-635
-375
-340
-159
-224
-381
-287
-82
-158
-217
-85
-226
-283
-92
-113
-301
-236
-129
-315
-345
-20
94
-121
-86
18
-241
-188
317
64
-324
86
129
-202
138
394
48
59
237
141
302
555
252
-49
328
718
411
265
676
497
271
665
816
768
734
683
512
389
637
544
272
323
291
-14
-111
98
-38
-179
41
-193
-416
-67
-169
-330
-75
-120
-144
-68
-181
-241
-326
-208
-151
-305
-51
153
-229
-346
-111
-171
-200
-116
-145
-206
-119
-175
-420
-302
-56
-251
-316
55
-187
-524
-208
-120
-292
-290
-111
-198
-395
-233
-269
-448
-189
5
-239
-334
-115
-247
-448
-172
-179
-355
-198
-229
-408
-202
170
69
-267
-23
237
-103
-90
107
-164
-266
-199
-319
-372
-238
-270
-470
-287
-93
-295
-302
-206
-447
-510
-144
-167
-737
-826
-283
518
1753
3261
3582
1816
-74
-618
-542
-411
-192
-76
-246
-302
-358
-370
-18
-7
-346
-173
13
-256
-290
-31
-131
-263
69
15
-308
-181
19
-84
-151
57
205
18
-19
107
-58
92
399
134
-3
256
143
66
371
416
314
453
504
274
324
713
651
431
631
621
454
650
790
673
697
858
687
370
539
480
18
165
303
-21
24
102
-222
-268
54
123
-191
-260
-11
-210
-353
47
-41
-359
-116
74
-121
-82
82
-293
-311
108
-170
-260
97
-71
-257
-84
-73
-259
-177
72
-2
-305
-223
-135
-313
-89
15
-346
-255
79
-267
-479
-49
-100
-351
-82
-43
-230
-231
-165
-258
-246
-36
-162
-205
-83
-183
-329
-137
267
61
-276
47
218
-96
-68
119
-12
-90
-18
-251
-395
-87
-202
-499
-267
-106
-354
-345
-117
-284
-299
-68
-265
-709
-707
45
1020
2403
3734
2802
375
-602
-417
-381
-173
43
-186
-243
-127
-238
-311
-162
-1
-246
-300
-1
-138
-198
28
-113
-299
-19
65
-170
140
111
-428
-182
185
-156
-174
398
223
-244
41
327
122
83
393
244
2
335
508
269
381
595
323
340
580
414
471
806
604
335
688
937
634
470
716
522
302
643
448
19
93
310
94
-243
76
44
-299
-67
-4
-305
-156
-30
-253
-35
139
-215
-253
58
-113
-405
-122
100
-237
-118
244
-140
-428
-94
-32
-272
-104
-48
-246
-231
-86
-154
-300
10
12
-333
-247
-99
-227
-293
-95
-40
-148
-111
-256
-460
-133
15
-378
-395
-110
-215
-378
-174
-158
-228
66
64
-235
-168
17
-39
-129
40
85
-191
-172
-84
-353
-289
100
-213
-675
-354
-98
-383
-399
-276
-516
-473
-200
-216
-374
-513
-452
187
1262
2524
3197
2114
335
-756
-855
-334
-231
-388
-150
9
-391
-423
-121
-391
-437
-176
-237
-268
-196
-222
-347
-279
42
-140
-383
-135
-180
-270
-33
-51
-237
-225
-98
-142
-184
20
-2
-131
117
224
-132
-6
399
100
-60
278
269
51
232
383
186
362
698
454
243
489
528
580
687
485
283
263
309
135
60
222
20
-231
-81
-91
-370
-280
10
-231
-565
-292
-147
-425
-381
-266
-365
-301
-88
-171
-526
-320
-58
-423
-352
-141
-446
-437
-209
-356
-449
-191
-236
-413
-188
-135
-539
-554
-165
-392
-640
-261
-156
-484
-354
-209
-605
-442
-96
-372
-266
-117
-604
-732
-423
-312
-371
-418
-296
-312
-409
-279
-417
-371
-105
-187
-370
-326
-84
-123
-316
-150
36
-329
-394
-120
-332
-563
-570
-503
-444
-353
-391
-719
-510
-284
-622
-404
-162
-673
-1017
-862
-214
1108
2589
3396
2522
576
-520
-666
-483
-223
-336
-647
-407
-232
-538
-440
-277
-507
-581
-363
-287
-412
-414
-136
-192
-513
-342
-317
-429
-103
-61
-438
-420
-141
-258
-291
-85
-137
-169
-35
-122
-244
50
219
-108
-31
332
-34
-268
267
498
250
321
342
82
201
591
524
381
570
433
224
474
619
335
210
252
180
71
61
-93
-267
-11
-120
-490
-404
-243
-298
-381
-277
-284
-418
-237
-138
-441
-432
-197
-342
-330
-36
-235
-516
-266
-201
-478
-350
-70
-268
-456
-165
-195
-607
-388
59
-138
-397
-339
-487
-541
-253
-197
-302
-202
-276
-522
-384
-112
-297
-580
-124
6
-611
-388
-91
-478
-349
-78
-433
-577
-159
-21
-226
-167
-124
-211
-5
169
-186
-316
81
-71
-500
-362
-275
-325
-158
-213
-408
-592
-490
-86
-223
-500
-353
-411
-527
-477
-702
-851
-37
1396
2534
3428
2874
541
-611
-299
-323
-401
-221
-280
-550
-370
-178
-427
-401
-139
-275
-359
-136
-229
-385
-244
38
115
-245
-302
-283
-421
-104
-50
-199
40
-12
-280
-161
110
103
76
186
19
-16
198
216
18
16
413
327
195
560
480
149
406
808
553
308
571
700
469
632
828
396
461
673
347
329
497
173
-102
151
43
-242
-63
-59
-161
-48
-129
-304
-330
-162
-92
-235
-188
-78
-127
-149
-65
-128
-284
-209
-20
-145
-259
-95
-283
-272
106
-40
-378
-230
-20
-239
-305
-82
-84
-253
-184
-260
-499
-265
-103
-239
-163
-97
-371
-422
-117
-217
-373
-25
-25
-529
-312
0
-340
-306
-4
-123
-370
-193
-96
-285
-165
-42
-97
80
150
-143
-199
63
7
-164
81
44
-398
-450
-205
-265
-401
-256
-323
-479
-273
-166
-315
-178
-9
-487
-945
-465
495
1620
3220
3938
2113
-162
-453
-350
-498
6
47
-462
-322
33
-204
-365
-157
-282
-299
79
14
-373
-144
121
-267
-232
83
-133
-274
-119
4
100
69
-14
-159
-54
137
-64
35
233
271
196
107
287
132
61
394
336
303
504
436
312
452
673
487
448
766
682
605
765
643
541
789
685
343
443
600
286
57
245
177
-137
-26
108
-140
-173
-53
-195
-303
-55
-63
-303
-133
-40
-167
-145
-70
-176
-201
1
-76
-207
-91
-4
-206
-350
-99
-189
-390
-53
104
-184
-357
-196
-172
-218
56
-110
-459
-136
-197
-461
-82
-84
-441
-316
-44
-180
-367
-131
-120
-432
-275
-101
-368
-316
81
-143
-487
-74
-30
-431
-142
117
-171
-248
63
166
15
76
38
-190
-166
-147
-336
-263
-38
-267
-526
-286
-215
-369
-115
-135
-458
-332
-161
-324
-624
-786
-473
492
1791
3165
3578
1972
8
-659
-548
-195
-142
-347
-43
10
-364
-298
-168
-232
-318
-183
-126
-298
-149
-46
-282
-220
31
-160
-241
-4
-96
-230
-80
72
-45
-141
51
70
42
238
116
-150
9
160
-25
136
490
284
150
383
386
231
506
744
432
433
777
587
339
658
702
389
656
814
473
555
543
184
238
247
-45
-154
46
170
-139
-275
-86
-255
-441
-149
-63
-279
-38
25
-496
-452
-76
-224
-158
76
-125
-319
-170
-10
-193
-56
74
-296
-436
-153
-91
-395
-198
53
-262
-344
-130
-326
-273
207
-150
-623
-314
-79
-200
-304
-271
-301
-215
-8
-153
-352
-178
-163
-439
-189
10
-271
-309
-171
-210
-361
-159
83
-7
-78
34
17
31
188
13
-201
-20
72
-263
-372
-151
-230
-281
11
-134
-536
-332
-86
-396
-347
61
-186
-500
-398
-642
-665
513
1932
3067
3856
2483
-174
-974
-297
59
-302
-262
127
-264
-404
-24
-22
-131
8
-156
-447
-166
40
-174
-52
227
-73
-213
131
-14
-266
128
199
-160
-96
158
112
-77
33
259
246
246
265
42
126
461
387
254
448
461
313
561
697
494
535
758
741
504
694
897
649
740
865
643
546
751
650
368
544
373
35
182
218
-15
-163
11
95
-111
-64
-17
-20
104
-99
-286
-79
61
-46
-130
42
98
-96
-6
-31
-269
-96
128
-82
-206
146
110
-342
-144
155
-189
-225
244
90
-299
-156
-120
-260
-46
46
-268
-190
136
-43
-357
-184
-71
-252
-20
142
-192
-303
-92
-126
-160
43
28
-153
-45
121
16
-58
65
88
-2
336
359
-148
-24
145
-162
-144
47
-125
-253
-120
-186
-341
-180
-92
-265
-133
56
-232
-191
18
-551
-907
-23
1368
2361
3488
3549
1236
-509
-316
-68
-275
-157
-26
-264
-221
-32
-81
-158
-17
60
-233
-100
117
-197
7
280
-100
-236
48
123
-51
44
234
90
-20
69
59
99
243
318
148
163
424
231
194
484
277
217
580
533
358
428
607
586
505
777
820
515
757
951
582
700
1008
737
694
927
655
431
558
432
197
266
204
-70
44
122
-113
-82
105
-2
-161
17
191
-27
-159
151
149
-180
45
137
-109
117
65
-250
-50
141
-120
-102
241
34
-111
98
116
-82
-209
54
107
-147
-59
-48
-226
-35
156
-58
-205
-49
42
-1
38
-42
-226
-70
99
-204
-161
264
-43
-379
-3
166
-155
6
324
-33
-70
291
160
5
221
286
58
31
162
-89
-248
-18
-73
-116
86
-68
-311
-137
-30
-272
-254
8
-48
-316
-436
-421
-20
1188
2489
3264
3142
1466
-372
-671
-173
-88
-148
128
110
-215
-272
-44
-77
-196
111
27
-286
-31
133
-71
70
212
-44
-90
103
22
-169
89
350
54
-90
201
174
117
343
322
176
290
400
141
270
586
252
269
627
476
282
654
805
332
490
863
723
765
823
670
629
845
963
751
609
577
432
291
534
516
-6
40
287
6
-133
73
52
-97
40
108
-163
-109
118
-54
-85
37
-55
23
173
-50
-276
33
255
-203
-227
201
35
-143
130
171
-78
29
-8
-303
-95
54
-158
-101
9
-38
-81
-80
-68
-151
-47
47
-231
-351
-36
4
-288
-154
116
-68
-208
51
-61
-128
312
64
-255
42
212
112
0
243
79
-251
7
-9
-274
-190
-4
-213
-342
-92
-267
-390
4
2
-310
-148
-61
-570
-548
-208
137
1432
2821
3315
2209
309
-479
-595
-292
59
-250
-306
-56
-54
-87
-127
-145
-157
-205
-65
-89
-229
80
76
-243
-69
26
-231
-142
136
96
117
100
-37
-103
42
195
-66
-26
299
112
-52
194
230
166
441
486
121
215
569
371
305
648
594
423
539
640
432
485
832
662
498
685
748
441
303
394
86
-22
220
51
-167
21
-11
-241
-94
-61
-226
-51
-87
-381
-366
-144
-208
-374
-88
-22
-289
-191
-64
-296
-286
-48
-83
-225
-134
-53
-355
-208
-34
-437
-448
-117
-143
-399
-182
-14
-281
-287
-273
-480
-460
-136
-43
-407
-395
-151
-383
-353
-75
-257
-419
-239
-306
-411
-219
-193
-285
-185
12
-132
-276
8
11
-168
-100
-76
-205
-353
-259
-192
-430
-359
-290
-597
-494
-215
-304
-377
-395
-499
-427
-299
-552
-907
-493
647
1687
2974
3550
1593
-503
-591
-406
-498
-198
-158
-495
-488
-264
-396
-539
-228
-92
-410
-402
-221
-331
-217
-83
-292
-274
-51
-252
-539
-233
-13
-280
-239
80
-150
-378
-80
-41
-131
14
125
-74
-147
146
53
22
327
210
17
235
344
101
247
664
420
237
625
599
371
535
589
415
549
672
328
107
172
-1
-203
-2
60
-242
-247
-130
-339
-428
-184
-98
-260
-268
-219
-414
-435
-173
-301
-453
-188
-199
-432
-292
-204
-465
-333
-112
-334
-408
-143
-240
-480
-110
-59
-430
-396
-249
-350
-471
-233
-210
-585
-371
-153
-506
-464
-172
-365
-410
21
-150
-591
-342
-199
-530
-488
-122
-311
-507
-194
-203
-299
-119
-52
-130
-139
-106
-223
-270
-56
-107
-441
-389
-350
-666
-636
-273
-423
-573
-204
-225
-523
-433
-330
-540
-765
-730
-524
546
2185
3185
3316
1726
-308
-869
-559
-185
-335
-491
-243
-251
-354
-257
-360
-496
-331
-258
-406
-317
2
-188
-512
-224
-29
-285
-290
-100
-272
-362
-129
-63
-67
-57
-110
-166
-170
28
-30
-58
195
-15
-64
169
161
117
207
506
397
98
279
388
242
431
643
463
537
740
463
441
771
540
251
409
313
-7
89
276
52
-196
-149
-240
-474
-220
-82
-405
-317
-184
-392
-355
-166
-155
-333
-350
-296
-357
-177
-82
-290
-396
-254
-239
-421
-232
-60
-503
-460
-72
-391
-385
-103
-333
-437
-293
-226
-376
-385
-170
-345
-554
-312
-253
-503
-312
-83
-374
-338
-161
-463
-585
-246
-141
-310
-110
-160
-527
-362
-11
-117
-307
-40
65
-128
-64
2
-154
-290
-196
-268
-485
-260
-262
-574
-344
-255
-499
-369
-237
-389
-402
-187
-203
-552
-788
-851
-426
1047
2558
3428
3069
983
-615
-766
-369
-54
-291
-259
-97
-378
-491
-315
-237
-386
-333
-188
-238
-247
-178
-323
-403
-30
-106
-431
-216
-38
-259
-184
33
-280
-278
71
25
-159
23
190
-89
1
305
43
-44
243
162
80
363
466
343
325
492
440
405
759
611
322
748
887
465
489
727
519
336
476
456
156
114
197
7
-35
61
-140
-328
-131
-96
-230
-183
-194
-380
-279
1
-290
-496
-163
-142
-292
54
-30
-486
-301
-104
-232
-324
-136
-135
-333
-161
-162
-333
-250
-92
-175
-401
-205
-111
-382
-287
-203
-446
-308
-15
-280
-474
-187
-113
-315
-263
-179
-267
-177
-121
-420
-514
-242
-204
-216
5
-27
-328
-215
132
-44
-135
164
121
-179
-218
-202
-469
-470
-168
-165
-343
-261
-321
-592
-375
-274
-480
-180
-12
-388
-638
-629
-698
-192
1405
2816
3591
2973
640
-845
-671
-275
-288
-395
-225
-189
-418
-332
-91
-165
-291
-157
-265
-484
-207
-46
-243
-244
-35
-173
-397
-227
-145
-193
-121
-3
-49
-28
169
-68
-219
132
163
-122
84
397
84
76
372
81
42
414
432
314
516
575
263
471
818
552
488
819
727
415
710
832
379
472
674
301
161
227
29
-25
36
-91
-331
-176
26
-264
-262
89
-85
-468
-249
-93
-224
-151
-170
-300
-320
-108
-47
-294
-165
-118
-432
-253
79
-131
-385
-149
-55
-312
-206
-73
-364
-363
-58
-197
-341
-48
-131
-447
-290
-301
-442
-125
10
-330
-416
-165
-241
-405
-235
-83
-174
-324
-215
-225
-341
-132
-20
-124
-67
66
-74
-39
105
-73
-124
-23
-166
-430
-355
-112
-295
-473
-261
-339
-432
-176
-240
-541
-309
-33
-296
-471
-584
-714
110
1555
2703
3511
2748
446
-774
-358
-114
-373
-314
-65
-190
-333
-148
-183
-439
-258
-25
-307
-415
-52
-48
-331
-123
-31
-214
-86
91
-75
-122
77
-221
-357
88
123
-128
8
257
78
-14
262
112
44
378
376
259
341
346
188
206
475
523
443
611
693
491
584
838
682
698
867
723
398
424
515
252
428
409
-144
-173
180
41
-303
-76
45
-184
-66
-58
-399
-418
-131
-36
-112
-133
-187
-290
-155
-71
-249
-249
-81
-91
-245
-159
-137
-379
-251
89
-94
-252
48
-215
-483
-88
-115
-338
-143
9
-290
-381
-80
-157
-376
-281
-229
-336
-174
-69
-226
-205
-155
-121
-209
-308
-261
-296
-121
53
-139
-253
104
98
-225
33
116
-207
-104
205
-183
-496
-119
-201
-528
-208
-52
-392
-333
-216
-491
-420
-44
-126
-421
-484
-691
-421
1002
2529
3598
3320
1169
-604
-796
-319
-69
-211
-141
-17
-335
-410
11
19
-319
-257
-124
-217
-76
16
-205
-146
117
-64
-226
-7
-47
-164
-40
65
-28
25
238
-46
-142
308
348
0
49
274
52
122
491
240
45
429
597
330
395
635
492
458
844
676
339
719
772
573
731
887
647
428
575
478
301
327
105
-67
138
171
-141
-246
5
-75
-218
-18
-71
-285
-240
-18
-59
-61
72
-128
-223
-43
-59
-271
-139
82
-89
-151
-55
-171
-291
-123
-73
-219
-102
21
-105
-65
72
-124
-345
-126
68
-278
-206
87
-295
-412
-124
-195
-325
-57
0
-216
-82
-6
-262
-246
158
-52
-343
105
97
-223
-36
198
89
13
88
-119
-292
-65
-25
-294
-169
-46
-318
-312
-59
-204
-515
-293
-87
-273
-248
-272
-621
-611
176
1311
2478
3570
2828
304
-707
-181
-277
-377
-71
-163
-286
-40
108
-292
-410
-110
-224
-220
119
45
-232
-91
64
-76
-165
-60
-48
-69
243
129
-313
-66
98
-87
103
332
168
96
378
205
-65
313
366
131
379
456
271
304
463
505
495
598
558
541
792
769
489
562
788
654
520
687
601
450
557
380
31
60
258
77
-119
51
45
-192
-135
-15
-310
-215
184
-172
-399
40
-35
-361
70
135
-288
-126
73
-138
-267
-28
-18
-256
-105
14
-137
-43
-8
-271
-266
-95
-83
-12
-45
-204
-391
-346
-37
-58
-171
-7
-155
-459
-122
118
-184
-319
-152
-191
-350
-39
86
-200
-101
93
93
108
90
-68
-152
119
20
-431
-188
-10
-411
-314
-84
-416
-379
-59
-261
-349
-134
-114
-356
-473
-429
-595
49
1471
2320
2984
2682
624
-906
-639
-85
-287
-303
-42
-200
-254
-23
-28
-345
-321
153
27
-353
-12
80
-251
-37
150
-51
-99
-10
-9
-86
118
142
-206
-39
222
46
53
229
106
-36
249
396
166
271
482
291
289
496
350
304
680
691
426
570
660
458
547
808
713
651
738
583
412
527
570
321
226
366
125
-167
161
200
-298
-189
65
-175
-142
88
-158
-368
-88
30
-257
-96
179
-266
-342
7
-135
-154
120
-135
-417
-118
-20
-149
-126
-101
-197
-237
26
-9
-299
-151
-19
-239
-242
-52
-257
-265
-16
-214
-386
-209
-3
-187
-403
-130
-174
-423
-181
-110
-403
-217
83
-193
-153
114
49
-28
43
3
-213
-73
27
-329
-407
-239
-269
-255
-198
-255
-477
-384
-135
-425
-391
-110
-251
-327
-474
-763
-741
409
1924
2852
3308
2026
-110
-802
-348
-99
-300
-194
-54
-305
-236
-45
-323
-503
-225
-177
-374
-193
-74
-292
-257
38
-54
-254
-29
-124
-419
13
168
-316
-176
171
11
-115
17
73
-50
35
193
-15
79
440
181
-24
305
335
174
477
575
360
463
545
410
472
790
693
422
653
799
472
423
678
380
82
283
98
-266
15
216
-196
-261
-64
-244
-266
-72
-232
-374
-117
-47
-157
-228
-267
-237
-367
-234
-119
-314
-207
-148
-218
-164
-120
-305
-365
-65
5
-298
-437
-174
-261
-341
-84
-234
-423
-236
-223
-411
-295
-113
-273
-359
-150
-240
-365
-158
-292
-548
-321
-71
-143
-244
-110
-255
-364
6
-35
-256
-46
124
-65
-147
-15
-117
-329
-280
-192
-357
-353
-248
-350
-264
-142
-419
-613
-265
-223
-565
-413
-350
-725
-741
-101
915
2113
3489
3335
1009
-496
-494
-459
-337
-130
-325
-407
-57
-250
-610
-324
-134
-292
-181
-62
-315
-331
-94
-177
-400
-271
-79
-230
-250
-72
-190
-283
20
93
-219
-96
166
-88
-126
133
-84
-167
187
158
90
270
262
134
178
386
337
380
628
481
293
509
671
450
448
861
853
477
530
430
103
311
371
-15
-67
25
-174
-254
-97
-165
-357
-147
47
-366
-430
-59
-289
-355
-58
-286
-361
-101
-285
-483
-266
-89
-321
-378
-57
-142
-355
-192
-192
-411
-333
-53
-197
-410
-97
-160
-505
-305
-174
-327
-208
-82
-426
-558
-186
-233
-421
-162
-78
-385
-468
-273
-345
-397
-139
-197
-481
-233
-37
-349
-325
29
23
-81
105
-63
-365
-180
26
-79
-249
-196
-423
-590
-290
-327
-558
-378
-230
-464
-429
-170
-329
-385
-75
-455
-1172
-791
290
1362
2721
3945
2850
141
-785
-529
-530
-277
-62
-179
-230
-183
-417
-574
-249
-252
-374
-31
-103
-476
-316
-20
-205
-372
-104
0
-234
-235
-99
-348
-270
153
-64
-256
140
174
-231
-79
205
-7
130
364
79
-34
215
225
48
320
505
352
666
830
275
133
592
670
503
768
911
615
563
614
411
283
397
340
133
77
-14
-210
-222
-136
-148
-46
49
-234
-428
-197
-79
-245
-234
-57
-330
-481
0
13
-400
-224
-106
-261
-118
-76
-239
-301
-167
-56
-115
-229
-272
-308
-214
-103
-219
-225
-72
-186
-469
-269
-109
-356
-225
58
-346
-485
-93
-254
-423
-223
-68
-108
-281
-263
-352
-461
-103
-87
-424
-52
94
-304
-96
123
-83
-89
159
210
-102
-183
-138
-443
-400
-113
-322
-325
110
-278
-712
-309
-199
-484
-334
177
-141
-609
-509
-804
-792
565
1992
2921
3670
2358
-237
-901
-265
-156
-215
-24
30
-369
-442
-69
-340
-536
-159
-153
-413
-94
60
-420
-345
-13
-112
-64
80
-214
-350
-5
-25
-262
-23
115
-86
-30
101
-61
-91
166
173
42
243
406
187
9
258
330
157
482
665
342
341
574
427
376
766
784
485
567
700
480
358
538
459
258
292
194
79
176
39
-341
-243
-43
-324
-384
-149
-48
-137
-220
-174
-443
-426
22
-155
-278
-28
-181
-350
-178
-79
-319
-264
20
-281
-401
-51
-137
-375
-165
-106
-337
-245
-126
-306
-345
-47
-59
-425
-370
-98
-147
-271
-170
-359
-541
-234
-230
-393
-138
-80
-452
-319
-42
-388
-435
-85
5
-153
-185
-26
-111
-84
165
17
-199
-11
-36
-346
-176
-27
-437
-327
-20
-439
-532
-172
-309
-499
-147
-77
-496
-418
-86
-458
-941
-572
208
1224
2773
3874
2564
190
-537
-474
-332
-75
-235
-370
-200
-184
-201
-153
-192
-272
-277
-169
-219
-297
-139
-104
-220
-108
-61
-263
-267
11
-1
-196
-73
80
-124
-67
225
-51
-153
260
228
-25
251
426
121
152
428
234
94
396
425
398
609
502
315
557
816
568
558
862
729
594
679
659
500
427
455
275
106
264
198
-126
-74
-60
-202
-28
28
-146
-174
-45
-104
-289
-168
-173
-383
-143
155
-208
-395
-47
46
-149
-125
5
-209
-205
63
-123
-373
-151
-64
-272
-125
-88
-329
-301
27
53
-263
-186
-189
-408
-185
134
-77
-141
-30
-433
-475
-111
-118
-229
-24
-43
-390
-289
-30
-168
-164
67
21
-17
154
184
-88
-20
295
78
-123
87
-82
-415
-177
-39
-242
-177
-121
-285
-310
-79
-43
-391
-205
-48
-418
-350
-283
-746
-471
1025
2331
3448
3647
1480
-540
-512
-162
-225
-165
-110
-230
-237
-69
-85
-280
-190
-19
-190
-241
-44
-80
-243
-82
-19
-143
62
74
-221
-195
62
32
-81
165
246
20
43
168
19
-73
203
286
89
298
375
145
330
469
233
257
591
570
407
577
656
517
724
891
620
623
903
651
368
619
591
347
413
418
178
102
94
-101
-130
44
58
-182
-167
5
-198
-255
-50
-144
-331
-57
6
-281
-172
-26
-76
-46
-31
-83
-161
-140
-132
-360
-229
141
36
-181
-157
-232
-258
-22
-31
-254
-195
-31
-267
-334
17
-150
-417
-116
-97
-442
-223
92
-143
-304
-76
-93
-341
-199
-38
-173
-289
-191
-180
-224
19
-38
-166
176
148
-101
0
2
-123
-25
380
73
-575
-244
-193
-525
-327
-95
-75
-236
-349
-304
-296
-122
-125
-488
-561
-646
-387
966
2447
3466
3335
1364
-493
-716
-253
-62
-258
-259
87
-132
-457
-126
-55
-318
-238
63
-63
-218
-13
-223
-271
186
71
-208
5
49
-174
-144
85
200
45
41
221
21
55
246
-40
18
359
223
14
255
346
167
467
690
377
272
537
594
399
611
812
475
722
947
501
519
800
730
431
509
609
273
207
310
-6
-160
91
75
-158
-32
74
-251
-236
-8
-139
-233
-120
-131
-223
-86
-98
-297
-92
64
-150
-174
-24
-97
-281
-90
118
-251
-356
-72
-144
-211
-71
-107
-200
-133
-107
-274
-186
-13
-288
-367
-192
-106
-65
-157
-143
-267
-246
25
-162
-334
-209
-246
-282
-71
-136
-252
-27
133
43
-94
82
103
-155
19
202
-190
-226
46
-357
-448
-36
-93
-308
-268
-245
-353
-326
-243
-158
-216
-152
-273
-771
-502
309
1131
2214
3322
2746
487
-444
-152
-381
-321
-121
-345
-175
80
-248
-374
39
-79
-369
-84
-55
-215
-6
96
-121
-156
147
-43
-334
-31
1
-171
2
143
-40
-200
79
269
101
98
127
-3
124
304
179
86
227
301
216
411
678
491
316
494
368
252
603
599
450
693
674
427
603
789
505
319
558
484
-7
-12
105
-152
-104
23
-169
-198
53
-67
-359
-92
-14
-247
-127
-50
-225
-207
-26
-151
-242
-11
-65
-254
0
117
-260
-256
38
-200
-352
-91
-72
-198
-230
-176
-197
-213
24
-60
-342
-93
-41
-326
-51
67
-422
-387
2
-205
-355
-66
-78
-348
-248
-98
-275
-137
155
14
45
244
34
-203
-98
-14
-196
-150
67
-150
-482
-315
-167
-406
-375
-78
-261
-463
-202
-280
-401
-125
-142
-596
-720
3
978
2055
3340
2901
654
-511
-389
-423
-385
-173
-347
-323
58
-51
-344
-301
-226
-349
-286
-84
-144
-161
79
-82
-498
-218
20
-235
28
248
-210
-282
31
-70
-203
3
52
-85
-47
111
-11
-125
194
267
75
456
692
82
-20
453
392
196
459
484
359
620
543
346
482
626
486
517
766
529
304
327
262
55
84
264
-24
-275
-107
-114
-278
-149
-207
-390
-180
-134
-385
-290
102
-81
-536
-218
61
-337
-286
50
-304
-441
-68
-74
-255
-108
-87
-307
-271
-200
-370
-215
12
-246
-321
-78
-136
-505
-400
-110
-202
-280
-155
-170
-351
-279
-253
-405
-238
-23
-155
-279
-209
-311
-457
-74
101
-295
-234
140
-60
-286
22
44
-251
-62
-31
-488
-333
-74
-442
-506
-273
-336
-423
-207
-76
-312
-444
-364
-520
-663
-535
-557
17
1522
2754
3170
2339
432
-680
-519
-279
-310
-334
-137
-139
-396
-248
-111
-354
-326
-173
-319
-398
-240
-188
-156
-91
-185
-269
-247
-162
-338
-344
111
62
-326
-177
108
-84
-153
168
52
-96
126
85
-6
191
219
-52
8
367
305
118
495
631
208
359
581
247
427
763
656
565
624
607
275
291
577
349
24
31
-39
-117
-40
-209
-357
-105
-5
-320
-341
-143
-290
-482
-295
-209
-361
-153
-62
-427
-518
-238
-226
-299
-106
-65
-347
-425
-221
-232
-325
-139
-112
-301
-300
-350
-464
-287
-148
-353
-357
-193
-337
-521
-323
-50
-324
-429
-66
-436
-706
-167
-198
-529
-293
-210
-460
-363
-123
-292
-369
-103
-87
-102
46
-105
-327
-214
-66
-308
-505
-234
-303
-521
-315
-370
-578
-286
-73
-544
-596
-227
-422
-560
-366
-423
-877
-806
475
1640
2700
3659
2088
-315
-593
-400
-653
-339
-59
-385
-459
-153
-301
-578
-292
-184
-421
-346
-178
-246
-249
-82
-230
-305
-82
-205
-340
-72
-23
-401
-323
88
-19
-272
-94
42
-161
-48
164
-1
-2
199
202
55
147
186
-18
261
533
261
304
552
380
379
657
553
349
480
646
482
397
575
406
160
295
304
74
-26
44
-208
-469
-162
-57
-324
-302
-116
-251
-283
-138
-371
-414
-137
-189
-348
-199
-67
-257
-292
-151
-321
-301
0
-267
-523
-188
-139
-374
-300
-197
-316
-325
34
-183
-631
-339
-227
-415
-329
-157
-184
-247
-256
-359
-513
-342
-191
-430
-337
-221
-515
-379
-45
-258
-367
-123
-178
-338
-154
57
-51
33
149
-259
-473
-253
-237
-334
-211
-170
-441
-612
-298
-240
-537
-301
-226
-553
-327
-181
-539
-612
-624
-715
198
1913
3185
3391
1990
34
-808
-527
-105
-243
-405
-190
-241
-539
-349
-43
-286
-385
-51
-231
-561
-193
-64
-368
-242
-50
-178
-274
-122
-158
-287
-20
-54
-350
-116
64
-34
33
69
-72
-142
96
171
-14
186
421
175
51
262
282
280
435
463
299
404
751
446
326
789
665
436
678
686
389
454
563
199
46
242
-33
-288
-17
34
-302
-301
-93
-217
-250
-127
-287
-397
-107
-121
-399
-221
-140
-361
-265
-53
-239
-424
-222
-130
-270
-198
-53
-229
-314
-109
-171
-323
-140
-136
-404
-320
-13
-237
-465
-94
-55
-351
-290
-202
-364
-229
15
-299
-323
-48
-332
-477
-151
-70
-360
-356
-203
-202
-65
-20
-231
-300
70
256
-116
-191
68
-128
-253
1
-155
-341
-153
-251
-512
-306
-39
-227
-427
-379
-365
-422
-240
-113
-351
-605
-805
-639
454
1932
3166
3566
1965
-295
-832
-329
-138
-297
-311
-47
-155
-439
-266
-212
-423
-186
18
-279
-385
-166
-165
-240
-27
-14
-277
-224
-51
-215
-189
79
-40
-115
-19
-131
-234
-92
150
161
53
107
103
31
156
199
175
366
481
254
134
512
617
298
412
577
391
508
718
520
477
779
744
506
520
425
95
191
471
31
-264
27
32
-247
-196
-80
-353
-311
-10
-187
-240
10
-221
-407
-212
-129
-264
-200
59
-271
-408
-29
-86
-251
-57
36
-218
-286
-122
-168
-287
-239
-182
-284
-232
-188
-410
-277
-36
-323
-443
-2
43
-357
-318
-145
-238
-240
-224
-335
-348
-146
-197
-446
-193
-35
-372
-237
132
-175
-253
156
61
-134
45
76
-150
-98
93
-167
-443
-196
-198
-505
-369
-309
-429
-165
-88
-390
-397
-217
-314
-586
-442
-380
-66
1404
2889
3633
2593
298
-761
-569
-223
-152
-331
-274
-99
-255
-334
-119
-148
-375
-166
8
-272
-170
65
-239
-343
48
5
-228
34
79
-264
-188
43
-90
-36
130
-18
-50
150
107
-64
112
329
117
142
418
248
18
286
571
358
398
566
414
446
634
604
492
670
771
615
628
834
626
322
553
401
21
205
190
-76
57
171
-211
-268
2
-174
-249
-4
-70
-342
-224
1
-178
-296
-67
-97
-157
-12
-189
-363
-166
-15
-177
-292
-63
4
-289
-191
15
-261
-273
35
-161
-355
-26
-116
-450
-244
-121
-340
-189
32
-235
-313
-82
-233
-464
-164
-7
-393
-380
-92
-248
-266
131
31
-358
-34
157
-175
-14
218
-133
-248
87
43
-283
-213
-88
-305
-399
-285
-381
-404
-52
-141
-485
-239
-182
-441
-268
-195
-724
-766
468
1776
3016
3859
2104
-363
-644
-281
-449
-213
86
-294
-433
-131
-123
-282
-249
-108
-199
-223
32
-159
-315
103
30
-262
-60
47
-212
-241
224
72
-275
110
124
-199
209
575
19
-186
178
245
75
264
476
54
105
592
390
184
517
590
491
641
653
519
569
690
616
641
957
786
452
679
794
391
282
563
222
-112
108
-22
-221
51
71
-168
-61
42
-86
-117
-112
-183
-141
45
-103
-365
-59
70
-185
-93
83
-62
-267
102
197
-371
-288
2
-147
-191
-3
-51
-222
-52
-77
-325
-64
75
-165
9
46
-355
-324
-9
-133
-366
-205
76
-147
-315
35
-106
-260
104
148
-198
-216
162
152
-3
174
115
-65
81
-103
-353
-93
-45
-297
-341
-82
-189
-447
-231
-105
-171
-201
-175
-227
-393
-541
-566
367
1840
2899
3413
2101
-32
-736
-461
-95
-109
-234
-18
-108
-350
-90
68
-109
-119
-45
-119
-250
-3
148
-238
-185
101
-79
-71
170
68
-113
47
211
15
68
315
144
51
195
150
76
239
290
182
336
466
234
208
465
465
545
700
554
361
494
720
588
598
845
751
663
891
761
271
493
904
317
-65
312
372
3
-11
177
-89
-164
17
-25
-61
-3
-77
-167
-107
-118
-199
-44
81
-137
-142
12
-39
-69
66
72
-162
-210
-93
-102
-83
80
-33
-247
72
117
-312
-220
236
-23
-438
-131
-97
-273
-63
78
-121
-221
-108
-180
-215
-96
-4
-102
-72
170
30
-27
179
4
-13
268
35
-172
-38
-40
-252
-203
118
-226
-508
-128
-233
-547
-146
119
-316
-381
-47
-260
-585
-306
192
992
2388
3388
2613
704
-458
-672
-493
-52
-25
-338
-201
-87
-272
-184
14
-188
-238
-83
-180
-229
-79
-37
-63
105
97
-211
-241
19
-88
-240
-12
81
-120
-81
240
166
24
275
185
-180
10
179
53
508
638
-10
-16
363
312
246
496
766
697
517
485
368
402
768
885
517
466
649
331
233
430
205
18
238
49
-321
-72
-42
-136
188
-70
-408
-232
-195
-312
-386
-168
-55
-299
-270
-53
-306
-348
-51
-82
-66
-86
-291
-403
-156
20
-322
-411
-99
-22
-145
-232
-341
-424
-250
-53
-299
-390
104
-36
-437
-148
-85
-354
-316
-23
-104
-378
-313
-253
-266
-31
71
-106
-43
62
-144
-193
94
-2
-300
-96
-70
-459
-436
-190
-348
-431
-113
-49
-412
-442
-305
-477
-396
-309
-649
-545
662
1830
2702
3581
2223
-331
-603
-61
-481
-458
19
-243
-501
-151
-126
-318
-164
-10
-186
-376
-171
-128
-198
147
163
-257
-164
24
-258
-308
-43
-42
-154
-10
72
-110
3
180
-56
-71
276
188
31
512
407
-167
62
361
183
184
471
513
444
551
569
402
478
749
696
663
794
685
392
332
515
263
150
343
2
-113
167
8
-196
-45
-41
-181
-227
-244
-258
-226
-67
-179
-356
-141
-219
-466
-198
36
-132
-172
36
-136
-494
-146
67
-305
-256
-57
-262
-360
-83
-41
-301
-190
-49
-371
-352
-51
-230
-348
-116
-220
-282
-148
-270
-362
-274
-104
-236
-319
-92
-151
-311
-55
59
-115
132
206
-99
-158
-63
-126
-326
-177
-124
-414
-287
-120
-474
-537
-171
-75
-255
-279
-269
-445
-410
-457
-887
-474
1012
1931
2802
3436
1787
-359
-591
-58
-133
-291
-115
-222
-435
-289
-180
-215
-207
-98
-213
-369
-68
-103
-352
-59
170
-106
-163
107
-169
-390
16
-6
-204
148
100
-246
-18
182
9
41
178
146
147
330
308
2
175
484
183
308
753
441
245
511
539
362
623
1095
837
460
658
589
394
620
500
218
382
379
16
-104
71
-52
-322
40
298
-281
-415
-154
-381
-350
-15
-111
-215
-31
-106
-389
-310
-79
-148
-80
161
-33
-492
-387
-125
-263
-279
30
101
-264
-243
-226
-467
-211
-22
-388
-296
277
-129
-566
-159
-173
-404
-213
-13
-177
-255
-185
-390
-374
-94
-9
-27
-76
-213
-241
-5
130
-104
-212
17
138
-115
-300
-248
-444
-387
-104
-256
-399
-266
-319
-525
-330
-109
-262
-342
-340
-654
-948
-216
1160
2076
3336
3496
1051
-593
-447
-404
-336
-108
-222
-382
-175
-174
-478
-240
-38
-379
-346
-88
-111
-139
-20
-89
-319
-239
-60
-221
-281
177
164
-241
-167
-116
-186
39
259
-3
-86
311
94
-238
200
376
85
153
263
131
295
526
385
401
580
492
440
628
676
472
557
814
718
512
615
607
307
290
337
77
13
200
177
-118
-223
-137
-283
-216
96
-152
-435
-159
-297
-446
-51
29
-265
-290
-48
-248
-357
39
-143
-439
-176
-154
-331
-200
-31
-180
-279
-52
-204
-440
-115
-58
-341
-292
-124
-242
-446
-208
-131
-464
-301
-69
-248
-288
-140
-257
-315
-180
-400
-525
-164
-14
-161
-77
136
-19
-147
-43
-157
-230
-73
-83
-461
-501
-256
-476
-513
-157
-242
-475
-290
-317
-585
-242
11
-531
-946
-702
-40
777
2098
3498
2976
877
-315
-582
-587
-214
-209
-477
-173
-13
-412
-475
-279
-266
-358
-298
-261
-401
-175
27
-341
-305
127
-45
-322
-256
-219
-151
-44
-112
-286
-90
239
-124
-267
242
153
-210
206
350
-137
-42
298
180
100
453
464
251
456
517
347
490
678
483
473
697
575
378
544
652
446
377
412
74
-76
262
113
-184
-76
-154
-432
-317
-131
-344
-378
-172
-206
-387
-296
-109
-324
-360
-88
-338
-392
-4
-146
-430
-219
-79
-324
-197
-85
-351
-245
-125
-345
-476
-228
-107
-378
-202
-26
-373
-484
-215
-137
-402
-270
-109
-406
-372
-187
-389
-421
-13
-50
-533
-395
-182
-291
-88
-7
-172
-98
85
-47
-253
-5
116
-296
-371
-159
-308
-378
-221
-231
-446
-452
-333
-438
-307
-145
-449
-559
-210
-351
-830
-737
-428
557
2146
3364
3287
1321
-281
-506
-518
-219
-57
-396
-402
-175
-237
-336
-137
-216
-478
-275
-78
-323
-387
-19
-153
-406
5
52
-344
-143
24
-284
-223
84
-82
-120
151
-45
-158
136
223
-87
59
525
127
-123
327
267
6
285
445
295
427
502
360
500
801
705
495
754
797
372
438
801
501
236
501
319
7
103
132
19
7
-66
-434
-281
-1
-231
-297
-176
-144
-316
-320
-30
-95
-324
23
-49
-567
-279
-35
-339
-266
33
-163
-231
1
-286
-419
-105
-74
-144
-142
-201
-346
-379
-108
-165
-331
-53
-135
-432
-291
-68
-262
-364
-48
-144
-416
-221
-281
-548
-222
2
-177
-245
-109
-43
-244
-15
277
-18
-24
104
-236
-285
25
-163
-401
-123
-114
-458
-488
-264
-318
-411
-166
-187
-389
-304
-256
-424
-722
-848
-246
996
2419
3605
3092
933
-427
-653
-387
-54
-271
-328
-42
-139
-481
-300
-86
-361
-247
-24
-288
-383
-34
49
-305
-223
0
-220
-202
-42
-168
-216
-66
70
-9
26
229
-26
-79
245
-21
-202
180
247
69
238
413
142
160
641
303
86
512
483
569
650
497
541
653
714
584
530
884
710
263
422
481
251
128
91
-25
-17
131
-95
-296
-7
-15
-397
-310
-61
-231
-223
-46
-248
-355
-23
13
-303
-232
25
-119
-270
30
22
-347
-175
-7
-368
-119
228
-236
-240
29
-197
-358
-103
48
-292
-353
-157
-292
-366
-122
-139
-338
-30
112
-257
-276
-81
-235
-285
-68
-139
-249
-40
41
-84
7
121
-62
-127
145
145
-95
55
-34
-439
-361
-141
-326
-334
11
-166
-439
-233
-101
-309
-345
38
-262
-825
-669
-208
853
2424
3598
2985
1000
-296
-697
-483
-119
-216
-131
-1
-196
-305
-193
-24
-197
-334
19
37
-349
-137
97
-151
-33
134
-196
-196
142
9
-119
95
161
-86
-11
233
-27
-13
358
248
-22
211
388
128
204
479
365
380
614
501
318
584
601
358
605
850
671
567
833
865
625
730
904
644
416
451
348
110
167
115
-172
130
214
-198
-65
101
-147
-186
-37
-102
-167
-99
-113
-288
-261
52
-33
-208
-22
-15
-158
-43
-28
-242
-124
36
-144
-243
-78
71
-162
-299
-170
-256
-179
-70
-267
-254
45
-40
-283
-115
-229
-362
-168
-136
-209
-324
-219
-140
-289
-240
-37
-7
-57
-72
-69
-13
145
191
-113
-110
101
-260
-451
-150
-163
-294
-225
-323
-462
-279
-232
-425
-153
191
-285
-590
-323
-666
-622
809
2079
2736
3065
1761
-311
-772
-335
-249
-230
-149
-105
-359
-400
-27
-259
-413
-63
-70
-206
-245
-67
22
-211
-124
-154
-261
-57
-154
-255
6
124
-118
-117
202
-44
-177
329
120
-233
196
249
-85
114
312
80
118
601
599
121
334
658
354
368
513
327
494
823
723
524
611
668
376
491
617
205
215
339
120
-144
-21
145
-136
-229
-59
-126
-136
13
-165
-287
-73
-113
-352
-176
72
-204
-362
-52
-83
-411
-141
94
-315
-264
35
-157
-204
66
-54
-321
-162
-168
-294
-154
-115
-239
-330
-89
6
-275
-258
-207
-330
-210
-64
-301
-326
-35
-21
-201
-202
-94
-283
-157
158
-94
21
402
64
-341
-107
39
-270
-289
-125
-253
-309
-182
-307
-498
-282
-226
-483
-197
117
-262
-507
-352
-561
-747
226
1609
2529
3314
2592
182
-957
-475
-316
-446
-117
152
-286
-507
-191
-259
-398
-86
-20
-224
-78
-79
-317
-190
-12
-208
-249
109
95
-267
-167
-12
-242
-57
234
-21
-132
63
45
-13
252
297
1
100
349
96
12
405
382
181
446
581
464
622
670
397
403
741
816
607
686
751
429
355
487
247
156
395
202
-42
121
53
-160
-71
-30
-240
-283
-137
-215
-328
-177
-65
-338
-384
-45
-202
-244
203
-87
-433
51
5
-453
-180
123
-257
-450
-185
-199
-372
-183
-26
-216
-261
-17
-121
-424
-228
-258
-483
-184
-75
-401
-329
-142
-389
-487
-241
-221
-392
-95
188
-224
-518
-151
-24
-175
159
182
-243
-168
-79
-337
-306
-161
-328
-364
-141
-350
-571
-153
-186
-477
-342
-269
-354
-463
-378
-640
-1008
-383
666
1606
3005
3594
1760
-408
-628
-310
-489
-305
-117
-344
-358
-198
-358
-488
-200
-204
-420
-139
12
-242
-309
-243
-346
-355
-85
-176
-330
64
-43
-417
-188
75
116
44
-46
-227
-320
3
114
-120
41
338
201
5
180
233
120
410
620
408
455
620
350
327
701
587
341
586
699
537
471
551
396
209
343
179
51
133
-27
-232
-236
-171
-315
-387
-156
-172
-423
-249
63
-246
-425
-42
-247
-458
-25
-67
-345
-152
-175
-432
-302
-117
-283
-332
-3
-21
-436
-357
-121
-252
-89
13
-366
-345
-141
-331
-431
-301
-275
-366
-265
-124
-346
-430
-213
-290
-364
-104
-92
-380
-208
38
-236
-286
73
13
-280
-99
19
-178
-158
-54
-290
-444
-208
-275
-512
-333
-251
-417
-349
-288
-392
-365
-201
-306
-609
-652
-719
-422
899
2246
3124
3139
1440
-381
-650
-144
-203
-509
-258
-122
-341
-334
-164
-209
-473
-411
-214
-420
-354
63
-126
-439
-49
-93
-491
-76
113
-197
-137
-22
-200
-266
-95
-143
-178
96
133
-129
-4
225
7
15
439
403
19
156
338
216
598
750
215
212
543
525
431
602
837
635
490
713
573
338
530
509
115
213
209
-278
-296
-73
-101
-184
-108
-232
-468
-213
-13
-214
-275
-197
-353
-289
11
-307
-423
-7
-147
-429
-245
-144
-303
-293
-110
-185
-384
-184
-89
-392
-321
-117
-189
-214
-147
-324
-493
-273
-184
-352
-338
-237
-401
-375
-119
-254
-394
-163
-50
-313
-411
-250
-335
-218
79
-126
-350
-31
225
-136
-220
58
-105
-223
-79
-213
-407
-244
-266
-477
-334
-128
-236
-509
-357
-239
-446
-301
-271
-709
-906
-437
429
1554
3016
3684
2151
203
-401
-513
-342
-30
-228
-425
-143
-236
-391
-138
-252
-516
-333
-58
-170
-156
2
-182
-315
-176
-57
-109
-60
13
-245
-218
162
-82
-311
-2
-7
-187
71
229
4
27
247
242
80
280
476
179
210
421
156
208
653
544
393
635
619
524
726
840
592
440
582
647
521
429
298
-40
-77
189
63
-133
-30
-193
-404
-164
-83
-258
-154
-143
-343
-348
-215
-235
-264
-127
-211
-328
-137
-52
-145
-169
-181
-238
-263
-93
-106
-364
-230
-154
-426
-412
-195
-220
-333
-205
-175
-361
-156
-52
-472
-388
11
-212
-523
-330
-218
-436
-348
-188
-404
-395
-116
-282
-450
-141
-6
-286
-343
39
41
-214
-60
-115
-254
9
-112
-431
-294
-121
-361
-577
-281
-325
-611
-250
-81
-506
-586
-293
-343
-541
-647
-796
-278
1095
2397
3446
3088
951
-612
-758
-396
-280
-194
-51
-246
-569
-414
-99
-387
-396
-53
-207
-407
-180
-13
-251
-225
-98
-274
-115
109
-193
-410
-105
-12
-224
-54
84
-45
-40
20
111
38
82
259
43
41
255
67
108
445
316
169
484
594
289
381
774
688
498
580
555
516
705
711
421
407
556
319
94
268
191
-186
-84
0
-250
-187
-99
-359
-412
-127
-207
-373
-131
-83
-396
-316
-89
-155
-201
-179
-255
-394
-228
-142
-277
-137
-13
-196
-271
-174
-287
-369
-37
185
-171
-407
-271
-405
-421
-90
-171
-437
-243
-63
-230
-249
-150
-352
-453
-189
-138
-321
-290
-277
-450
-225
-67
-383
-170
202
-94
-385
-179
193
104
-81
35
-196
-271
-60
-214
-393
-94
10
-541
-522
-197
-384
-283
-35
-352
-519
-251
-330
-620
-534
-464
-398
765
2332
3364
3205
1274
-318
-606
-471
-58
-132
-410
5
-28
-554
-419
-251
-415
-292
-73
-138
-219
-28
-100
-279
14
-15
-333
-193
-28
-207
-238
-15
-58
21
167
-26
-36
118
231
108
-96
52
163
135
218
283
133
200
586
516
294
466
510
416
612
696
456
631
916
484
423
983
741
281
671
700
104
40
221
13
-81
139
18
-257
-137
-140
-263
-166
-12
-27
-330
-225
-126
-388
-181
-84
-334
-150
68
-176
-315
-104
-158
-397
-61
201
-267
-328
14
-241
-378
-125
-163
-329
-151
-135
-451
-183
41
-322
-349
-145
-314
-518
-211
-7
-383
-324
0
-311
-285
39
-266
-439
-145
-200
-407
-79
147
-205
-215
159
123
-165
28
135
-304
-200
-62
-315
-209
-78
-358
-521
-256
-238
-373
-155
-114
-365
-408
-267
-359
-679
-763
-323
661
1923
3320
3555
1554
-315
-534
-424
-297
-169
-298
-237
-93
-204
-370
-194
-95
-310
-171
-82
-315
-158
55
-116
-129
-49
-175
-249
-140
-6
-82
31
184
-150
-144
143
-19
-36
301
298
-46
42
282
143
286
549
196
-21
327
581
549
482
603
446
298
611
636
564
931
935
499
584
832
605
520
532
176
76
311
211
-88
50
115
-215
-175
-9
-197
-201
-13
-82
-250
-132
-68
-307
-230
41
-68
-197
-65
-21
-225
-183
114
-156
-307
-64
-158
-146
19
-32
-307
-320
-123
-250
-242
4
-171
-335
8
19
-371
-308
-159
-209
-110
-95
-335
-504
-226
-60
-217
-132
-68
-362
-283
115
-61
-103
218
65
-157
29
72
-171
-149
15
-115
-349
-201
-100
-322
-281
-119
-325
-425
-168
-202
-289
-79
-179
-535
-557
-544
-197
1069
2552
3431
2636
606
-520
-582
-346
-89
-94
-191
-66
-54
-289
-109
-49
-365
-232
8
-118
-269
-97
-104
-238
-25
51
-122
-7
268
-17
-232
46
33
-76
208
268
-2
36
148
61
67
361
301
98
358
362
70
278
534
316
403
714
501
274
578
720
582
751
871
561
520
893
796
407
530
487
67
121
220
1
-69
71
11
-251
-163
-57
-247
-208
108
26
-325
-199
-45
-212
-151
-22
-222
-156
-23
-288
-239
119
-43
-359
-128
15
-240
-186
27
-237
-267
132
-81
-448
-155
-17
-337
-331
-147
-324
-211
189
-182
-530
-204
-138
-334
-225
36
-168
-330
-116
-228
-308
57
145
-261
-176
135
-106
-154
102
24
-169
-116
-107
-308
-198
-109
-512
-435
49
-145
-503
-324
-246
-435
-278
-110
-494
-754
-420
394
1486
2617
3292
1949
-133
-553
-510
-516
-61
-49
-361
-118
-92
-473
-282
38
-224
-286
-63
-178
-185
-43
-141
-325
-137
104
-146
-153
182
-77
-241
121
119
-150
-117
83
77
52
98
30
-19
156
301
125
186
512
369
257
482
357
259
552
544
433
581
620
446
492
757
732
620
605
515
249
307
683
321
-105
156
22
-262
84
124
-257
-113
-36
-277
-210
-43
-234
-329
190
55
-429
-150
-121
-230
-4
-20
-228
-295
-74
-59
-262
-3
99
-190
-227
-61
-184
-415
-200
112
-124
-352
-194
-296
-298
-21
-129
-350
-50
-18
-495
-366
-18
-204
-364
-123
-195
-454
-83
76
-231
-154
35
-149
-166
161
19
-13
223
-9
-290
-282
-68
-124
-396
-194
-185
-418
-171
-229
-529
-317
-26
-270
-386
-155
-575
-812
-304
332
1397
2733
3344
2112
119
-542
-494
-495
-216
-123
-299
-177
27
-139
-303
-134
-197
-444
-147
72
-211
-131
-49
-271
-259
-141
-64
-155
-85
67
-212
-198
283
100
-215
25
-23
-99
135
168
-33
55
237
121
323
449
142
142
413
505
370
392
508
470
561
609
491
478
781
813
392
519
638
287
344
546
290
-19
87
56
-106
76
-15
-264
-249
-140
-186
-351
-236
-93
-255
-165
47
-265
-170
135
-283
-451
-146
-73
-204
-193
-136
-277
-295
-108
-124
-280
-125
-37
-340
-337
-128
-368
-364
5
-191
-360
-74
-160
-446
-284
-169
-339
-308
-118
-239
-407
-192
-153
-296
-130
-99
-378
-360
-130
-179
-196
8
20
-134
10
186
-70
-209
47
-56
-384
-160
-56
-449
-434
-224
-417
-456
-211
-290
-449
-262
-155
-365
-434
-462
-812
-519
892
2036
2952
3497
1754
-482
-639
-198
-265
-146
-41
-280
-418
-225
-156
-328
-136
-13
-423
-466
-87
-133
-287
-89
-122
-338
-90
37
-260
-222
45
-51
-183
4
39
-78
-22
126
62
29
233
103
11
181
132
114
320
401
208
256
470
311
235
560
661
420
495
690
551
542
767
662
415
568
592
234
175
293
68
-58
145
18
-292
-132
-97
-324
-128
-64
-275
-162
79
-126
-423
-172
-92
-344
-101
96
-271
-367
-148
-170
-314
-198
-103
-252
-203
-84
-264
-295
-40
-161
-371
-161
-117
-376
-305
-22
-189
-354
-59
-214
-503
-231
-118
-329
-318
-57
-231
-408
-131
-213
-299
-75
-226
-448
-279
-162
-258
-190
59
44
-29
171
65
-246
-66
77
-223
-197
-35
-364
-467
-187
-186
-392
-389
-301
-404
-354
-128
-190
-437
-268
-279
-746
-646
134
1156
2516
3807
2897
462
-482
-467
-547
-251
-98
-312
-283
-136
-229
-300
-85
-98
-391
-245
29
-194
-287
8
-112
-345
4
105
-176
-91
-3
-228
-229
37
-76
-25
302
94
-166
8
160
-43
-20
300
207
68
321
500
340
271
452
411
323
582
584
416
705
737
397
523
797
614
488
636
446
227
402
407
96
98
325
84
-172
-47
-228
-334
-13
-82
-380
-215
-38
-253
-325
-139
-164
-322
-108
17
-304
-266
-109
-297
-105
128
-160
-321
-85
-75
-351
-162
55
-298
-410
-168
-212
-374
-207
-151
-395
-289
-133
-272
-258
-46
-202
-359
79
10
-466
-300
-164
-431
-428
-144
-255
-420
-182
-188
-468
-308
25
-75
-109
151
13
-164
125
179
-100
-86
-5
-310
-396
-26
-168
-560
-321
-250
-539
-318
-154
-548
-503
-91
-228
-388
-234
-532
-903
-259
1039
2239
3391
3352
1102
-570
-338
-334
-569
-272
-159
-435
-429
-179
-266
-375
-167
-153
-273
-121
-77
-282
-162
-33
-312
-306
-29
-88
-228
-71
-15
-253
-223
31
-6
-150
65
139
-89
39
240
97
79
309
198
44
246
376
304
333
435
317
437
698
429
281
625
666
571
753
707
469
534
648
357
184
429
435
20
-102
18
-189
-200
47
-64
-202
-44
-104
-347
-257
-99
-214
-272
-76
-110
-338
-220
-102
-144
9
-42
-376
-292
-96
-242
-267
-41
-35
-284
-252
-98
-220
-224
-50
-246
-455
-199
-116
-313
-180
-37
-301
-324
-138
-382
-297
12
-217
-436
-320
-128
-367
-478
-94
-40
-344
-333
-259
-413
-232
40
-75
-131
61
-147
-254
181
179
-130
34
35
-373
-335
-121
-301
-365
-137
-158
-346
-317
-217
-320
-332
-153
-206
-270
-234
-592
-946
-417
840
2144
3324
3503
1425
-694
-672
-273
-337
-85
16
-357
-400
-107
-275
-438
-124
-138
-376
-65
121
-305
-249
43
-237
-305
-27
-112
-211
-12
0
20
50
-78
-143
-144
139
321
37
15
162
-8
26
297
242
70
243
340
244
369
496
321
319
626
653
533
748
717
414
602
736
577
563
678
513
185
312
379
95
130
89
-139
-26
2
-130
-231
-125
-82
-342
-231
-23
-142
-287
-236
-177
-199
-39
-39
-315
-312
-93
-179
-150
67
-82
-241
-148
-198
-290
-157
-94
-223
-232
9
-81
-338
-124
-213
-402
-12
0
-386
-358
-172
-241
-342
-211
-170
-272
-199
-149
-298
-314
-76
-55
-262
-240
-206
-281
-109
86
-177
-199
180
69
-151
111
226
-200
-165
76
-329
-460
-169
-209
-292
-129
-299
-544
-205
-57
-407
-289
-22
-352
-481
-393
-734
-524
856
2325
3336
3301
1314
-597
-681
-230
-72
-180
-65
6
-417
-428
-18
-117
-360
-110
-118
-400
-183
37
-210
-212
-56
-209
-50
235
-56
-351
-72
128
-19
30
101
-29
-41
163
145
-71
99
251
65
111
334
235
165
486
603
374
411
550
347
353
772
661
385
720
857
553
585
761
568
473
616
421
195
413
299
4
147
91
-226
-210
-34
-195
-273
-29
-72
-315
-263
-134
-199
-234
-52
0
-182
-98
-175
-404
-195
61
-98
-180
30
-190
-321
-78
-182
-331
-110
55
-210
-322
-92
-199
-261
9
-129
-494
-349
-142
-365
-349
-41
-71
-325
-266
-232
-438
-230
-52
-178
-148
-182
-373
-381
-117
5
-74
-49
-26
-185
-97
155
150
89
69
-99
-335
-175
-102
-343
-148
-74
-388
-354
-117
-225
-412
-69
-4
-471
-436
-165
-379
-815
-668
91
1115
2480
3720
3061
710
-184
-220
-670
-331
-94
-408
-223
86
-211
-256
7
-223
-395
-76
40
-265
-101
161
-260
-376
4
-83
-205
106
38
-214
3
155
-13
22
271
180
0
177
110
-26
450
446
-95
112
454
236
229
570
499
274
565
738
433
439
751
760
729
906
715
492
751
735
442
530
650
383
148
235
187
-72
-7
79
-140
-129
57
-136
-323
-23
-5
-255
17
112
-170
-257
-145
-42
-115
-56
-81
-191
44
47
-230
-226
48
-56
-307
14
-14
-300
-115
-34
-254
-244
99
-104
-277
54
-93
-366
-218
-24
-258
-371
-36
-75
-280
-94
-57
-374
-261
139
-153
-293
28
-87
-180
-54
24
-24
144
250
-108
-130
178
14
-285
-127
-150
-290
-34
-19
-441
-427
-34
-199
-402
-195
-169
-311
-200
-205
-660
-660
272
1289
2373
3671
2837
239
-703
-377
-379
-258
-4
-181
-165
60
-205
-266
-87
-127
-270
-189
143
-116
-280
102
-62
-275
54
131
-69
-26
49
-56
-81
86
96
-125
133
493
35
-157
191
91
76
377
248
58
249
330
303
385
484
392
368
564
638
547
575
655
558
606
795
724
513
549
490
257
324
423
195
41
305
144
-255
-39
14
-239
-154
9
-232
-273
21
-210
-358
-58
-94
-190
8
3
-200
-137
-77
-228
-251
-63
-28
-192
-99
-30
-311
-331
-7
-80
-313
-79
-63
-281
-66
-78
-380
-253
-69
-269
-391
-222
-224
-337
-135
-54
-316
-301
-186
-307
-259
-61
-230
-331
-32
-8
-205
-138
107
-28
-163
103
45
-303
-243
-97
-278
-407
-265
-360
-506
-106
-69
-461
-255
-53
-441
-448
-152
-433
-647
-528
-60
986
2194
3175
2505
577
-517
-817
-551
-27
-233
-528
-218
-75
-252
-235
-115
-272
-424
-203
-53
-230
-173
-23
-315
-344
-22
-154
-185
89
-110
-386
-79
133
-181
-202
185
206
-90
-33
1
-189
35
265
137
192
287
133
107
320
442
377
492
617
290
334
664
579
593
770
712
400
445
672
352
268
522
171
-125
141
129
-204
-150
-68
-301
-251
-5
-164
-341
-93
-117
-389
-221
-156
-398
-156
48
-329
-436
-129
-118
-260
-173
-92
-253
-303
-157
-281
-356
-204
-33
-156
-259
-84
-342
-472
-136
-158
-343
-249
-319
-439
-170
-112
-389
-379
-50
1
-368
-311
-191
-429
-318
-163
-372
-238
233
-12
-369
-123
-57
-187
-34
66
-75
7
62
-288
-480
-252
-218
-328
-133
-141
-459
-500
-243
-319
-468
-112
-154
-517
-423
-345
-616
-305
1111
2362
3221
3007
937
-678
-632
-244
-343
-348
-84
-154
-183
-133
-363
-467
-227
-146
-424
-373
-109
-182
-301
-142
-71
-241
-138
7
-195
2
278
-175
-397
-115
-108
-279
-69
322
148
-118
79
-19
-161
127
244
112
295
435
189
228
448
471
441
533
565
438
524
712
501
416
689
686
643
596
295
35
134
321
-19
-175
68
-116
-184
-46
-163
-301
-180
-72
-220
-140
-76
-333
-399
-162
-20
-277
-234
-20
-380
-346
-12
-171
-311
-155
-188
-436
-222
28
-201
-129
50
-296
-435
-186
-221
-395
-129
-9
-339
-270
-173
-375
-375
-130
-73
-412
-412
-137
-292
-349
-116
-268
-408
-150
-194
-374
-175
-59
-236
-150
112
-43
-91
146
-5
-264
-91
48
-268
-332
-126
-383
-584
-314
-228
-400
-254
-151
-426
-365
-210
-363
-330
-394
-813
-675
644
2175
3264
3577
1929
-385
-933
-375
-256
-341
-135
11
-308
-475
-204
-337
-431
-76
-90
-310
-126
-109
-416
-301
-61
-194
-235
74
150
-224
-257
-117
-339
-207
153
-34
-157
113
120
74
178
61
-127
47
313
176
280
652
311
-82
277
510
376
421
710
779
539
587
636
495
613
726
543
591
657
180
-70
175
151
-78
54
143
-208
-242
-36
-245
-352
-220
-221
-304
-199
6
-87
-355
-392
-328
-320
-173
-106
-225
-216
-190
-361
-324
-103
-260
-417
-23
94
-219
-283
-322
-485
-411
-122
-252
-345
-26
-179
-515
-335
-172
-375
-339
-127
-251
-239
-124
-303
-473
-311
-200
-374
-248
-66
-324
-494
-264
-186
-369
-196
148
-25
-204
-29
-36
-147
-31
-27
-233
-140
-114
-399
-393
-238
-440
-486
-163
-209
-471
-363
-158
-370
-422
-52
-159
-692
-840
-478
532
2040
3349
3565
1809
-149
-694
-622
-286
-160
-176
-33
-114
-310
-418
-318
-312
-346
-62
-105
-267
-5
-60
-360
-223
-33
-80
-245
-213
-73
-181
-22
55
-233
-77
164
-42
-115
129
112
-109
232
501
68
-31
332
205
123
678
638
271
439
481
336
467
714
560
512
854
723
368
615
921
621
446
573
254
-3
207
152
-142
6
134
-174
-180
1
-170
-393
-266
-119
-340
-229
199
-30
-313
-104
-263
-424
-99
-81
-209
0
-82
-382
-244
21
-217
-390
-58
-49
-323
-102
35
-255
-210
-99
-294
-439
-121
102
-439
-530
-157
-310
-282
-23
-193
-273
-121
-276
-412
-221
-114
-264
-103
15
-394
-515
-164
-19
-168
-116
53
-38
-62
103
-20
-241
-80
71
-205
-248
-153
-447
-473
-232
-364
-421
-139
-144
-350
-354
-306
-424
-374
-316
-818
-760
583
1693
2585
3693
2675
93
-786
-344
-243
-277
-132
-228
-418
-178
-26
-301
-354
-132
-220
-324
-149
-89
-148
-111
-54
-213
-167
36
-159
-203
-19
-88
-195
-28
119
-97
-55
148
-11
-36
281
321
13
178
351
38
141
563
397
252
537
420
231
479
687
569
626
887
704
450
622
651
511
629
748
581
277
196
90
-21
213
113
-346
-244
-82
-322
-257
129
65
-356
-315
-210
-411
-297
79
-43
-348
-183
-177
-308
-133
-149
-219
-56
-139
-364
-231
-45
-253
-314
-2
-39
-345
-157
-116
-484
-321
-21
-161
-273
-87
-251
-427
-129
-164
-422
-234
-18
-345
-482
-134
-218
-454
-173
-9
-345
-350
18
-107
-266
5
-30
-217
57
105
-137
-20
79
-81
-108
-118
-284
-399
-207
-5
-288
-481
-304
-343
-416
-205
-261
-438
-195
-81
-530
-829
-602
251
1590
3038
3961
2533
127
-581
-625
-484
-75
-225
-239
15
-184
-401
-266
-156
-300
-179
115
-100
-277
-52
-116
-360
-33
135
-232
-155
-27
-194
-177
104
110
-153
106
367
-33
-150
162
84
-52
208
367
171
305
413
134
271
576
414
318
637
591
390
753
877
465
568
980
720
526
865
645
280
484
486
231
127
156
57
-158
8
41
-280
-121
98
-194
-231
16
-201
-348
-83
-133
-365
-178
12
-230
-240
-46
-236
-294
15
93
-88
-124
-140
-359
-324
-100
-313
-399
26
-8
-410
-238
-81
-300
-209
-101
-351
-293
43
-183
-484
-267
-202
-429
-344
-88
-286
-434
-225
-232
-375
-250
-42
-127
-235
-59
-13
-188
105
269
-205
-126
89
-213
-213
-82
-348
-443
-87
-161
-459
-257
-220
-474
-296
-96
-400
-524
-256
-324
-647
-680
-357
561
2009
3460
3504
1480
-233
-490
-444
-212
-7
-314
-394
-110
-303
-495
-153
-111
-400
-250
-81
-230
-208
-70
-194
-173
119
-18
-297
-180
-34
-91
-37
36
-94
-140
70
108
-75
156
355
30
35
278
43
100
668
487
51
270
418
284
447
684
460
474
806
667
473
725
783
549
676
830
519
350
581
407
80
232
296
-44
-108
112
-175
-400
-124
26
-235
-296
-70
-233
-301
-111
-205
-267
-61
-116
-244
42
94
-239
-350
-171
-163
-176
113
-19
-382
-188
-3
-262
-261
46
-175
-375
-51
-100
-270
-94
-43
-262
-286
-24
-149
-296
-128
-197
-335
-115
25
-293
-323
-47
-248
-368
-125
-45
-136
-54
109
-61
23
256
-8
-161
28
13
-233
-232
-146
-193
-108
-177
-416
-348
-123
-260
-377
-92
-154
-463
-292
-77
-451
-838
-192
1041
1990
3286
3448
1072
-600
-471
-399
-235
52
-165
-347
-25
-33
-349
-157
70
-238
-362
-12
-25
-289
-64
199
-116
-204
31
-83
-76
130
-64
-102
198
85
-169
-25
226
108
121
344
147
69
365
318
146
282
325
197
338
713
601
317
534
644
468
639
904
733
630
794
724
563
688
677
427
440
489
214
77
332
157
-239
46
216
-97
-29
92
-225
-215
4
-169
-240
-12
61
-220
-206
192
-31
-284
8
-88
-260
-13
45
-157
-88
57
-147
-162
48
-119
-150
139
19
-329
-189
55
-243
-401
-111
-74
-222
-110
-105
-315
-168
94
-34
-168
-14
-117
-410
-215
42
-98
-100
136
-12
-88
196
106
-4
91
50
-141
-221
44
-183
-483
-142
-225
-426
-119
-174
-459
-288
-8
-198
-358
-141
-324
-653
-397
487
1508
2685
3431
1881
-287
-668
-471
-456
-154
54
-271
-384
-89
-15
-180
-235
-209
-236
-19
17
-264
-119
59
-193
-202
54
-24
-203
-75
94
-48
-119
113
41
-86
142
149
48
130
201
102
11
181
292
250
383
460
180
405
664
291
341
697
644
527
689
603
475
774
785
533
542
496
358
332
386
277
124
214
161
-122
-127
62
29
-126
-110
-194
-237
-17
-60
-231
-182
-94
-193
-170
3
-68
-264
-63
125
-161
-222
24
-70
-231
-82
-63
-161
-42
-67
-318
-139
12
-334
-370
-57
-80
-133
-59
-170
-275
-153
-91
-332
-400
-103
-68
-315
-165
-45
-353
-318
-70
-207
-249
-27
57
-9
4
20
-79
87
150
-193
-368
-250
-255
-359
-190
-203
-423
-235
47
-331
-563
-183
-281
-519
-200
-267
-816
-605
392
1398
2349
3268
2395
72
-715
-380
-400
-175
88
-295
-446
-235
-264
-353
-191
-60
-263
-201
-18
-250
-263
22
-53
-158
24
-42
-295
-154
40
-60
16
161
-30
-159
44
130
-93
50
340
124
-27
137
146
25
299
508
275
317
545
353
254
625
657
508
708
731
451
527
799
490
408
767
508
299
472
287
-55
48
210
-57
-28
54
-229
-297
-91
-113
-360
-205
103
-145
-350
-82
-171
-427
-211
-44
-276
-216
40
-233
-260
-7
-112
-173
10
-102
-427
-281
-57
-199
-330
-107
-127
-333
-154
-228
-483
-292
-97
-317
-306
83
-4
-500
-430
-183
-362
-170
14
-385
-506
-121
-174
-462
-187
-27
-205
-127
64
-43
-237
-22
-24
-154
66
-60
-432
-346
-128
-415
-515
-131
-76
-382
-364
-301
-524
-452
-264
-355
-352
-374
-776
-742
432
1728
2697
3574
2537
38
-843
-339
-294
-370
-60
-119
-469
-414
-229
-372
-237
44
-249
-398
-174
-182
-376
-302
-68
-98
-115
2
-162
-357
-148
-71
-230
-42
115
-103
-63
117
-73
-198
70
148
-83
70
301
121
172
418
334
209
427
493
244
377
630
462
424
755
713
534
685
634
405
441
589
396
91
126
82
-102
123
143
-258
-155
-6
-395
-355
-31
-266
-487
-220
-82
-316
-313
-102
-322
-387
20
-214
-502
-194
-116
-268
-280
-164
-202
-233
30
-242
-599
-241
-166
-339
-123
2
-325
-440
-210
-270
-361
-265
-294
-359
-268
-219
-416
-363
-109
-232
-374
-231
-211
-494
-403
-90
-315
-370
1
-80
-215
-25
-98
-221
-63
-39
-177
-143
-21
-209
-457
-219
-216
-536
-372
-177
-381
-416
-161
-288
-536
-295
-149
-483
-690
-675
-721
52
1648
2881
3501
2582
343
-746
-420
-188
-413
-290
25
-237
-504
-301
-203
-447
-350
-102
-291
-353
-90
-135
-370
-210
-72
-160
-22
15
-219
-243
-49
-87
-167
110
48
-287
-62
200
-20
-63
262
188
-62
227
363
134
329
535
250
242
654
561
175
396
696
529
614
797
556
494
733
624
397
547
719
509
106
-5
-65
-95
31
-20
-23
-51
-181
-330
-295
-99
-272
-319
-8
-144
-450
-172
-84
-334
-144
-44
-149
-99
-40
-242
-456
-207
-92
-361
-143
218
-239
-559
-230
-243
-419
-218
-154
-296
-176
-94
-362
-338
-93
-224
-411
-268
-157
-437
-422
-168
-286
-373
-157
-63
-291
-226
-171
-498
-368
-38
-166
-149
13
-256
-372
-35
154
-24
-92
8
-208
-292
-61
-173
-390
-229
-243
-528
-424
-204
-274
-324
-335
-494
-543
-302
-181
-480
-633
-488
-164
865
2465
3613
2975
1004
-378
-683
-429
-220
-331
-312
-153
-197
-286
-250
-264
-465
-386
-200
-360
-313
84
-99
-457
-113
-41
-318
-230
14
153
-84
-171
-83
-220
-45
24
-254
-47
274
-44
-135
215
181
117
211
294
401
256
261
314
181
503
710
474
519
538
336
559
805
622
574
766
895
510
278
367
31
34
268
28
-131
17
-150
-389
-222
-125
-280
-215
81
-232
-554
-180
-220
-344
-22
-141
-427
-269
-79
-134
-181
-93
-202
-301
-149
-226
-421
-211
-81
-277
-189
2
-247
-481
-176
-95
-351
-247
-124
-227
-269
-209
-359
-473
-191
-125
-257
-140
-143
-437
-368
20
-200
-299
-33
-336
-534
-273
-180
-308
-188
96
-50
-165
138
78
-176
-19
272
131
-246
-255
-397
-453
-173
-244
-419
-252
-206
-433
-291
-84
-329
-380
-163
-262
-473
-660
-624
246
1598
3045
3757
2244
106
-431
-304
-366
-307
-364
-373
-59
-113
-411
-149
-60
-397
-174
98
-190
-325
134
84
-467
-256
-18
-204
-167
29
-89
-109
150
31
-118
23
176
63
-76
71
70
51
251
187
143
370
272
169
508
572
274
370
577
469
421
599
600
383
620
917
620
524
701
633
536
730
767
137
-6
229
-129
-251
-55
-77
-190
-117
-97
-346
-132
121
-223
-146
43
-197
-232
-111
-179
-289
-105
-9
-228
-246
-106
-177
-200
-29
150
-32
-261
-165
-287
-228
143
-54
-433
-282
-185
-310
-201
-136
-258
-199
22
-97
-363
-247
-160
-196
-82
-105
-354
-428
-186
-244
-380
-22
-17
-388
-175
39
-220
-109
132
-146
-188
188
111
-192
-8
181
-104
-197
-105
-316
-332
-137
-95
-236
-310
-172
-328
-425
-174
-213
-290
-123
-229
-738
-852
53
1170
2280
3689
3253
708
-498
-365
-434
-191
2
-232
-229
-72
-257
-302
-96
-178
-336
-138
-9
-131
-160
-55
-96
-245
-24
39
-165
3
139
-98
-146
-24
83
133
3
32
-7
97
254
120
149
384
300
6
253
399
247
529
588
186
223
610
621
475
683
863
640
607
863
708
565
816
534
196
492
444
46
141
381
109
-138
-10
-122
-332
-139
50
-46
-95
-120
-328
-278
-49
-285
-229
217
-147
-423
-19
0
-214
-177
17
41
-183
-25
-25
-381
-235
-38
-12
-131
-217
-183
-302
-166
-16
-216
-142
-39
-319
-223
-43
-234
-118
64
-77
-322
-270
-37
-303
-351
-62
-219
-308
-51
-49
-177
-7
129
-77
-44
291
127
-24
27
-114
-270
-255
-139
-219
-196
-148
-434
-459
-148
-140
-360
-236
-152
-365
-205
-106
-524
-757
-30
1125
2070
3252
3094
753
-600
-328
-466
-538
-27
101
-237
-235
-121
-363
-273
11
-222
-346
-67
-16
-205
-115
9
-181
-144
36
-166
-307
100
256
-126
-34
239
-4
-149
156
169
-65
