-230
-195
-81
-136
-236
-101
-299
-518
-184
-12
-216
-308
-128
-109
-344
-362
-166
-256
-270
-124
-283
-325
-225
-345
-258
48
52
-5
145
156
-4
7
8
-97
-150
-141
-155
-359
-381
-315
-414
-315
-200
-310
-317
-269
-294
-418
-387
-205
-381
-411
-398
-709
-565
513
1845
2843
3039
1533
-474
-941
-403
-292
-347
-104
-272
-611
-288
-29
-230
-244
-140
-164
-280
-236
-182
-381
-217
-27
-193
-149
-223
-345
-93
87
-43
-159
-71
23
-36
-8
46
-86
-132
71
220
22
24
212
175
206
327
349
193
359
596
266
316
659
399
314
661
698
619
687
699
533
437
630
567
384
428
196
-30
94
7
-206
-76
-20
-260
-191
-114
-230
-191
-141
-212
-315
-132
-68
-264
-220
-192
-334
-300
-25
23
-352
-300
55
-112
-169
-17
-209
-265
-49
-56
-311
-318
-145
-244
-273
-110
-191
-397
-320
-142
-198
-191
-143
-216
-223
-219
-241
-386
-299
-60
-171
-219
-104
-243
-360
-165
-283
-490
-165
24
-230
-150
131
-39
-138
41
165
98
72
166
-22
-209
-200
-360
-328
-242
-397
-421
-373
-290
-364
-315
-120
-255
-331
-165
-304
-533
-400
-497
-625
163
1457
2507
2993
2035
87
-947
-627
-297
-366
-274
-214
-251
-375
-262
-239
-347
-122
-152
-246
-134
-189
-288
-158
-53
-97
-224
-219
-59
-120
-147
-26
-180
-209
90
15
-118
86
84
24
98
129
63
93
210
25
80
356
301
195
223
437
404
310
500
491
279
407
640
590
745
770
529
576
721
557
133
96
275
113
98
85
-187
-180
-36
-102
-226
-195
-217
-322
-227
-194
-236
-189
-192
-268
-299
-233
-250
-323
-252
-113
-199
-224
-15
-219
-331
-55
-107
-258
-191
-59
-276
-396
-80
-143
-311
-170
-200
-285
-255
-265
-294
-355
-265
-165
-273
-235
-47
-263
-435
-173
-230
-359
-154
-187
-348
-217
-191
-229
-243
-251
-99
-51
15
33
-146
-1
225
67
-36
-96
-304
-379
-164
-345
-542
-200
-246
-530
-346
-177
-385
-448
-255
-325
-353
-286
-510
-619
-379
428
1419
2372
3030
1898
-197
-931
-663
-535
-368
-135
-318
-511
-163
-176
-353
-53
-128
-332
-138
-136
-264
-101
-65
-189
-222
-115
-50
-283
-169
-3
-207
-119
33
-32
-150
-8
171
32
48
195
6
-111
217
186
14
248
275
214
381
399
241
250
406
566
372
443
703
480
575
665
491
484
581
536
339
389
337
174
94
-19
92
57
-13
-90
-272
-179
-157
-313
-234
-112
-334
-243
-71
-346
-296
-142
-171
-167
-137
-100
-293
-191
93
-224
-350
-43
-29
-236
-265
-135
-173
-245
-244
-150
-73
-35
-74
-189
-111
-237
-333
-149
-60
-149
-252
-83
-194
-429
-214
-125
-285
-202
-39
-120
-190
-65
-159
-288
-66
65
-43
-91
122
169
-86
-39
157
44
-5
-9
-380
-537
-170
-65
-251
-165
-133
-451
-365
-28
-394
-512
-92
-150
-327
-213
-356
-694
-374
567
1567
2510
2959
1606
-499
-846
-413
-419
-203
-18
-215
-331
-187
-164
-316
-217
-112
-194
-99
-18
-140
-159
-77
-151
-251
-77
15
-118
-57
18
-142
-208
-44
34
11
162
127
-37
152
226
-27
-65
194
267
227
390
390
261
289
199
221
498
648
547
530
567
502
574
655
696
572
568
741
636
350
264
327
231
264
289
28
-11
20
-184
-218
-87
-22
-134
-125
8
-332
-465
12
42
-195
-51
13
-231
-331
-118
-164
-179
39
-51
-125
-110
-194
-185
-229
-207
-166
-183
38
-40
-281
-124
-175
-386
-171
-3
-172
-201
-39
-173
-448
-348
-150
-214
-211
-75
-183
-169
-200
-458
-182
-67
-233
-117
-8
40
-65
-150
2
72
-12
109
130
-30
55
76
-251
-345
-118
-272
-362
-106
-323
-419
-134
-139
-257
-349
-240
-172
-401
-334
-124
-479
-663
-170
569
1767
2968
3009
1313
-475
-631
-405
-322
-55
-177
-403
-224
-101
-279
-130
-33
-297
-221
-115
-200
-129
-100
-116
-59
-119
-99
-112
-320
-121
82
-35
98
95
-73
14
-28
-192
36
273
24
73
313
182
32
160
400
170
168
515
400
335
408
422
531
621
536
520
729
713
557
567
698
663
463
506
500
228
226
214
-69
-5
125
-28
-154
-61
-138
-333
-101
-134
-350
-124
31
-179
-259
-55
-220
-369
-105
-83
-229
-192
-124
-157
-252
-157
-32
-210
-245
9
-284
-444
8
-67
-267
-59
-149
-371
-151
-22
-233
-289
-176
-207
-334
-279
-153
-158
-177
-145
-281
-311
-61
-168
-291
-89
-148
-309
-213
-56
-84
-192
-23
8
-143
6
-89
-84
217
146
20
14
-9
-109
-271
-188
-192
-394
-273
-174
-289
-373
-326
-306
-387
-254
-211
-317
-230
-266
-555
-719
-239
846
2014
3048
2921
1081
-450
-551
-402
-346
-163
-130
-216
-220
-243
-240
-83
-99
-384
-273
-15
-160
-204
-116
-62
-111
-158
-21
-102
-145
84
10
-264
-99
75
-30
5
125
125
-2
-15
111
113
218
312
160
227
336
75
86
520
512
371
474
438
417
568
753
657
591
839
709
407
679
781
452
496
564
245
144
189
-17
-95
63
4
-151
-31
0
-248
-189
-39
-358
-351
-53
-113
-173
-98
-229
-362
-247
-38
-35
-174
-30
-72
-354
-119
6
-245
-130
36
-146
-204
-56
-84
-338
-410
-18
-178
-353
38
-43
-337
-286
-134
-232
-146
-6
-218
-213
-187
-286
-255
-177
-92
-221
-243
-89
-231
-304
-118
-142
-181
-84
-98
-134
-27
135
90
-45
19
133
85
122
75
-279
-311
-166
-445
-416
-80
-198
-276
-177
-361
-520
-262
-100
-243
-306
-224
-365
-653
-537
10
1031
2335
3208
2694
742
-603
-728
-693
-366
-113
-206
-155
-192
-407
-326
-20
-107
-266
-57
-24
-200
-82
-167
-406
-206
8
-13
-71
-18
-68
-170
-48
84
-47
-63
53
31
96
192
116
2
135
261
198
172
313
248
151
445
434
275
441
602
492
517
693
562
524
722
777
614
597
767
654
340
413
534
351
339
328
21
-166
10
-45
-155
58
-73
-291
-102
-30
-227
-318
-194
-150
-178
-46
-126
-359
-158
-98
-419
-127
133
-160
-156
28
-122
-281
-110
-131
-291
-222
-134
-160
-242
-145
-154
-311
-119
-46
-322
-399
-209
-240
-257
-18
-207
-468
-178
-117
-352
-190
-68
-305
-348
-176
-332
-457
-134
-10
-278
-151
3
-256
-159
72
-23
-74
149
147
7
115
145
-108
-343
-204
-273
-416
-195
-291
-430
-203
-151
-428
-463
-143
-192
-393
-349
-263
-297
-370
-483
-683
-141
1244
2390
3081
2800
683
-1074
-635
-153
-431
-272
29
-233
-372
-64
-265
-395
-123
-92
-170
-185
-47
-135
-314
-128
-30
-148
-88
58
-36
-152
-52
-115
-181
141
239
-24
69
253
-68
-167
207
151
35
326
312
77
252
452
309
308
512
563
456
546
651
426
486
788
788
644
693
814
618
463
602
513
470
500
207
114
131
25
-83
-106
-35
-164
-137
37
-184
-282
-152
-182
-214
-214
-139
-192
-194
-87
-215
-146
-63
-235
-206
23
8
-232
-142
28
-186
-253
-9
-145
-328
-84
-148
-277
-226
-245
-243
-184
-47
-145
-263
-150
-172
-357
-300
-94
-247
-364
-91
-81
-349
-300
-164
-263
-166
-30
-269
-311
-101
-378
-435
-48
-46
-117
-1
147
109
32
47
34
-20
-57
4
-132
-214
-177
-376
-357
-169
-268
-379
-231
-249
-429
-315
-192
-287
-345
-191
-313
-693
-629
-325
402
1833
3065
3222
1689
-209
-746
-648
-351
-117
-201
-121
-210
-388
-286
-204
-212
-293
-174
-64
-210
-128
28
-119
-229
-61
-136
-218
25
43
-146
-10
108
-142
-99
75
-4
32
198
132
35
71
94
118
79
230
349
361
478
179
37
512
676
462
502
692
685
607
634
694
607
699
867
661
558
628
405
218
393
284
-60
-14
61
-259
-299
-48
-79
-187
-46
34
-272
-224
-84
-252
-257
-34
1
-278
-167
-97
-295
-132
-72
-254
-222
-136
-127
-220
-169
-75
-159
-80
-12
-114
-218
-160
-157
-281
-156
-76
-264
-149
-126
-465
-335
-124
-224
-252
-152
-264
-284
-75
-172
-313
-245
-232
-271
-206
-191
-221
-188
-164
-255
-176
-15
11
-73
-154
146
214
-61
32
153
-76
-112
23
-168
-333
-228
-175
-500
-481
-58
-216
-345
-132
-282
-525
-288
-141
-404
-344
-338
-721
-666
251
1427
2454
3282
2430
177
-875
-628
-545
-502
-126
-65
-261
-211
-101
-269
-331
-131
-191
-231
-76
-92
-175
-77
-93
-304
-220
37
-120
-272
33
67
-129
-31
149
68
18
126
-27
15
255
165
92
287
326
57
147
497
340
171
471
537
390
553
604
386
419
630
545
589
879
776
626
767
682
425
420
466
359
191
118
119
-7
-8
8
-187
-124
9
-221
-385
-175
-155
-269
-73
-57
-314
-159
15
-204
-154
-21
-146
-183
-58
-99
-202
-145
-69
-159
-262
-62
-85
-288
-125
-250
-397
-91
6
-246
-278
-62
-168
-299
-182
-190
-393
-270
-61
-279
-294
-199
-397
-391
-151
-120
-288
-152
-213
-501
-213
-29
-176
-201
14
53
-206
-151
49
60
100
190
51
-160
-45
-82
-346
-236
-245
-504
-390
-145
-258
-427
-246
-221
-414
-321
-234
-418
-364
-245
-521
-676
-297
772
1870
2724
2798
1098
-605
-848
-604
-393
-180
-116
-235
-261
-201
-423
-351
-133
-226
-182
-62
-107
-223
-165
-174
-241
-141
-93
-162
-188
-61
-10
-139
-100
73
-110
-181
104
137
-22
123
159
-149
86
320
93
65
176
267
207
80
359
451
338
491
436
353
522
585
423
579
691
514
488
502
471
378
430
303
2
165
108
-285
-170
1
-80
-90
-102
-155
-337
-375
-153
-200
-207
-125
-307
-274
-168
-305
-261
-64
-111
-294
-270
-222
-319
-144
-41
-237
-219
-67
-45
-306
-290
-41
-198
-234
-106
-264
-402
-199
-89
-265
-262
-147
-279
-262
-98
-172
-309
-246
-114
-290
-321
-95
-309
-409
-235
-323
-252
-45
-20
-135
-173
-50
-28
-15
180
60
-103
158
87
-215
-147
-109
-315
-376
-249
-329
-394
-249
-329
-599
-439
-46
-288
-540
-209
-105
-337
-334
-362
-105
1073
2122
2612
2170
513
-690
-952
-600
-153
-218
-279
-220
-242
-283
-160
-106
-212
-111
-91
-248
-203
-54
-152
-176
38
-19
-312
-225
-43
-115
-80
54
-5
-159
80
132
-95
17
150
77
-27
82
109
137
182
9
179
397
387
363
356
424
347
320
594
573
360
534
688
501
542
774
619
487
465
297
261
333
292
80
35
147
-2
-151
-89
-63
-128
-104
-121
-237
-189
-127
-268
-177
-15
-219
-306
-3
44
-274
-173
-24
-253
-238
-34
-94
-280
-59
51
-259
-210
-43
-231
-457
-162
76
-76
0
-25
-260
-165
-72
-329
-238
3
-182
-249
-63
-180
-418
-200
-55
-203
-243
-80
-34
-300
-183
-75
-260
-69
109
-31
-51
96
36
-129
31
179
49
122
119
-147
-286
-369
-339
-248
-165
-161
-229
-207
-150
-210
-456
-389
-165
-224
-161
-180
-518
-486
99
678
1792
3119
2635
688
-509
-583
-458
-289
-134
-203
-189
-47
-150
-210
-252
-347
-183
-49
-37
-49
-51
-9
-118
-264
-130
58
-31
-122
37
51
-26
151
-27
-170
164
142
-3
94
288
-16
-328
258
444
219
358
354
199
369
494
283
323
590
589
484
685
667
408
612
763
643
658
754
614
337
460
459
174
208
325
112
-1
82
-62
-133
-13
-24
-174
-165
33
-184
-418
-83
-158
-288
17
2
-219
-82
86
-115
-175
-43
-48
-159
-11
-35
-326
-151
8
-144
-192
-72
-91
-193
-163
-178
-216
-165
-48
-112
-216
-119
-118
-314
-264
-38
-218
-176
29
-321
-365
-52
-175
-290
-88
-106
-325
-234
-96
-151
-160
-34
-10
-34
94
100
41
93
128
6
-16
46
-307
-454
-118
-53
-259
-272
-202
-281
-249
-233
-318
-338
-223
-156
-308
-194
-157
-517
-608
-70
932
1947
2962
2880
865
-674
-566
-373
-362
-128
-108
-265
-164
-131
-271
-147
14
-179
-262
-58
8
-68
-97
-159
-254
-96
67
-87
-131
125
-15
-174
118
127
-4
122
140
-99
-92
129
165
105
289
370
165
201
282
203
287
504
438
403
554
470
454
640
693
539
563
785
733
633
799
704
355
441
507
277
235
175
-80
-33
168
-6
-135
-1
64
-108
-214
-56
-111
-329
-124
49
-204
-129
-18
-130
-143
-192
-105
-146
-126
-55
-159
-56
-120
-252
-175
-118
-146
-139
8
5
-222
-277
-124
-133
-237
-86
-63
-259
-179
-99
-242
-241
-154
-373
-318
-21
-249
-356
-82
-30
-250
-253
-70
-151
-248
-113
-112
-185
-50
-52
-98
149
78
-160
59
155
82
-17
-89
-171
-414
-241
-153
-421
-351
-168
-207
-265
-164
-233
-441
-331
-228
-383
-344
-238
-512
-467
580
1868
2814
3048
1717
-295
-899
-373
-297
-444
-145
-13
-171
-137
-71
-200
-222
-251
-398
-190
124
89
-96
-47
68
-58
-154
3
40
-125
-62
19
-97
-10
135
45
-26
65
64
-11
174
302
172
238
340
190
127
336
418
298
430
443
266
428
702
631
470
557
671
742
841
818
621
628
692
548
352
327
275
53
140
215
-42
-121
-37
-279
-294
85
7
-194
-113
-81
-184
-243
-150
-117
-196
-180
-124
-165
-109
-72
-229
-208
-40
-60
-150
-141
-173
-143
-22
-93
-221
-137
-9
-179
-292
-89
-198
-350
-188
-102
-251
-221
-62
-209
-208
-19
-176
-518
-213
-24
-299
-145
-83
-234
-254
-144
-83
-261
-88
144
3
88
210
29
-50
116
150
23
2
-111
-410
-434
-340
-361
-176
0
-117
-278
-174
-157
-467
-369
-110
-371
-325
-131
-484
-714
-243
741
1780
2874
3154
1430
-489
-709
-505
-505
-232
-88
-164
-138
-65
-129
-208
-239
-196
-173
-105
-11
-114
-149
-43
-209
-316
-16
26
-32
62
36
-59
26
77
-132
-81
119
183
57
67
239
-12
-67
290
266
211
325
295
248
319
475
366
391
627
483
469
644
600
597
737
812
527
513
792
613
453
564
427
34
51
169
-37
-71
44
-49
-278
-196
-97
-241
-73
-2
-284
-202
-197
-358
-212
-72
-94
-216
-101
-36
-351
-209
66
-210
-201
10
-173
-162
-49
-236
-251
-81
-14
-133
-296
-134
-48
-244
-101
-33
-274
-196
-173
-307
-204
-163
-163
-165
-132
-124
-258
-303
-167
-128
-319
-308
-183
-222
-130
-73
-135
-21
25
-53
18
247
144
-137
34
150
8
-47
-89
-288
-299
-158
-283
-354
-205
-225
-440
-377
-187
-337
-469
-311
-279
-259
-220
-472
-650
32
1232
2245
3162
2729
525
-833
-675
-401
-342
-319
-206
-206
-266
-179
-232
-259
-97
-101
-206
-207
-66
-140
-160
5
-242
-289
-25
-11
-47
-59
68
26
-172
-28
82
10
82
162
-35
-5
249
105
102
322
184
30
242
412
133
187
660
560
422
650
583
399
655
782
579
656
810
703
580
587
581
470
291
197
150
167
169
20
-124
-63
-149
-359
-49
37
-246
-204
-51
-157
-244
-123
-207
-313
-180
-98
-174
-127
-77
-215
-266
-78
-92
-267
-101
-67
-260
-94
-126
-422
-270
32
-46
-304
-208
-190
-285
-94
-79
-230
-250
-117
-93
-268
-292
-133
-274
-384
-159
-166
-256
-380
-373
-185
-104
-36
-171
-192
-31
-249
-196
241
207
42
124
161
-41
-147
-124
-308
-310
-113
-231
-375
-379
-396
-339
-284
-240
-287
-337
-382
-423
-291
-169
-278
-621
-593
131
1118
2157
3051
2479
412
-782
-670
-581
-620
-411
-164
-59
2
-212
-314
-138
-196
-256
-197
-127
-238
-292
-17
-82
-342
-177
20
-165
-236
-28
-90
-172
-13
-6
-146
-62
-17
-107
103
275
95
47
292
232
43
212
291
139
233
458
336
297
519
440
377
643
598
421
584
784
724
698
751
577
392
380
440
246
165
173
-13
-97
-103
-130
-254
-98
-34
-266
-178
-156
-281
-285
-221
-197
-188
-80
-155
-237
-130
-73
-179
-239
-46
-88
-299
-158
-57
-228
-197
-74
-158
-251
-193
-136
-277
-134
-88
-401
-276
-50
-212
-359
-173
-127
-246
-131
-81
-235
-224
-152
-309
-323
-90
-212
-402
-132
-94
-276
-120
55
-66
-39
223
-52
-143
217
120
-239
-248
-46
-294
-399
-190
-314
-446
-247
-237
-511
-355
-154
-382
-447
-218
-216
-508
-609
-529
-40
993
2068
2806
2311
664
-686
-860
-440
-273
-319
-233
-104
-200
-326
-241
-249
-339
-133
-89
-315
-238
-74
-234
-269
-53
-122
-278
-59
79
-174
-222
66
-12
-89
48
-23
-155
-59
120
-22
-28
179
167
42
62
161
126
151
311
359
410
523
294
240
557
577
476
630
628
445
576
507
397
474
398
318
276
314
185
-124
-88
-2
-179
-144
-104
-218
-199
-69
-90
-294
-341
-171
-216
-354
-235
-214
-275
-156
-100
-246
-303
-110
-185
-341
-134
-131
-271
-216
-133
-200
-109
31
-220
-280
-29
-163
-461
-202
-93
-342
-370
-255
-184
-209
-149
-163
-298
-266
-140
-223
-285
-175
-252
-265
-152
-172
-215
-239
-160
-225
-84
125
-81
-32
210
80
-188
-196
-207
-328
-319
-332
-419
-459
-371
-294
-351
-361
-400
-494
-272
-270
-593
-460
-334
-363
123
1129
2034
2431
1839
142
-1038
-859
-430
-325
-342
-333
-342
-339
-198
-108
-339
-415
-149
-230
-361
-107
-162
-324
-88
-34
-222
-346
-166
-94
-242
-84
-124
-202
-5
40
-191
-226
36
39
-66
67
173
-45
-70
210
136
110
367
269
57
250
411
220
315
582
357
298
631
525
345
568
601
333
430
566
187
184
439
114
-22
83
-215
-274
-94
-72
-146
-112
-46
-177
-136
-87
-216
-193
-156
-125
-64
-121
-113
-125
-191
-178
-208
-204
-71
-67
-148
-138
-68
-74
-132
-115
-86
-55
-128
-151
-144
-244
-78
-23
-164
-41
-200
-418
-148
-42
-211
-146
8
-99
-431
-231
111
-218
-240
26
-48
-16
-18
-159
-193
116
343
18
-18
223
84
-44
80
-52
-329
-191
-157
-502
-370
-106
-198
-149
-134
-237
-445
-470
-172
-218
-229
-144
-412
-417
313
1231
1908
2571
1992
80
-810
-470
-397
-364
-59
-205
-393
-67
-53
-452
-218
149
-58
-206
-82
-6
-107
-169
-75
-51
-55
34
-121
-131
124
-108
-146
145
45
-30
142
182
-98
-111
226
274
122
149
283
118
126
443
361
316
418
262
263
538
583
454
575
646
480
488
560
583
673
774
741
405
384
466
66
-21
216
162
11
78
15
-162
-77
-59
-181
-180
-41
-84
-262
-141
-150
-354
-24
162
-163
-141
26
-55
-141
-243
-217
-83
-36
15
-76
-227
-58
31
-247
-152
30
-146
-48
75
-257
-321
-38
-84
-118
-18
-151
-184
-166
-169
-105
-84
-35
-133
-333
-252
-51
-97
-121
-50
-52
-11
52
-33
-48
85
88
97
198
160
-24
73
59
-275
-291
-183
-125
-359
-508
-128
-132
-248
-66
-129
-281
-182
-144
-352
-267
-157
-504
-495
328
1218
2179
2994
2089
-30
-816
-293
-314
-484
-182
-76
-132
-62
-59
-226
-238
-137
-203
-122
33
-27
-78
33
-30
-251
-167
34
20
-28
50
62
20
-193
-263
84
251
235
163
102
188
102
-37
161
258
162
321
431
245
162
333
364
390
648
663
467
522
609
560
599
666
640
586
715
708
390
450
497
103
64
273
41
-188
76
127
-176
-103
5
-180
-152
-18
-101
-188
-130
-143
-208
-100
39
-114
-259
-46
-35
-215
-94
-165
-290
-74
-34
-117
-18
75
-74
-230
-135
-198
-267
-124
-117
-172
-94
-142
-339
-305
-68
-56
-273
-172
-92
-238
-228
-152
-218
-245
-80
-127
-349
-272
-93
-288
-319
-21
-63
-160
43
98
-66
56
171
-30
-56
79
77
-91
-171
-192
-282
-313
-314
-371
-329
-141
-212
-314
-173
-263
-473
-360
-204
-243
-324
-389
-474
10
1193
2155
2717
2272
443
-801
-682
-406
-300
-211
-222
-170
-195
-182
18
-159
-264
-105
-133
-225
-233
-152
-115
-114
-78
-83
-120
34
-5
-138
8
59
-4
12
77
-162
-76
247
53
40
264
245
94
106
180
110
155
349
370
318
471
506
351
403
574
486
463
744
703
596
740
665
467
520
695
495
294
362
320
140
44
73
-65
-77
-17
-217
-294
-125
23
-193
-333
-12
-66
-152
-106
-209
-129
-16
-50
-222
-44
23
-222
-81
-31
-225
-205
-164
-133
-85
-11
-236
-417
-47
54
-125
-61
0
-100
-165
-259
-277
-245
-209
-86
-236
-349
-83
-142
-317
-124
-165
-273
-213
-80
-160
-306
-35
-128
-282
-40
3
-109
-144
-50
-41
18
169
76
23
138
70
-76
-127
-235
-369
-249
-18
-165
-401
-188
-138
-377
-299
-197
-244
-220
-238
-306
-317
-382
-488
-514
194
1585
2553
2884
2069
54
-996
-550
-247
-298
-102
-34
-270
-276
-36
-118
-254
-58
-130
-210
-108
-97
-99
-41
21
-57
-184
-67
13
-153
76
213
-49
16
194
-7
-130
66
129
134
109
41
200
334
334
252
202
420
376
206
380
417
380
444
569
564
535
744
710
534
613
637
579
692
718
602
445
398
465
232
89
190
2
-107
38
-52
-323
-226
23
-230
-229
63
-92
-139
-74
-231
-177
-46
-126
-111
5
10
-265
-276
-57
-221
-166
149
52
-112
-76
-175
-239
-121
-63
-218
-277
-129
-150
-230
-149
-73
-174
-228
-97
-224
-400
-118
-18
-314
-293
-78
-151
-180
-41
-233
-302
-79
-150
-323
-240
-141
-291
-122
94
-160
-168
112
214
196
150
138
-19
-38
167
-67
-372
-225
-99
-231
-307
-274
-286
-283
-176
-328
-509
-269
-159
-319
-226
-92
-328
-498
-406
9
1052
2332
3031
2461
701
-754
-915
-480
-265
-184
-105
-68
-66
-273
-318
-114
-135
-120
38
-98
-251
-77
-91
-243
-22
60
-106
-126
-32
-78
-209
25
110
-114
23
214
63
-16
191
219
-17
103
281
88
196
350
168
172
332
316
368
533
554
455
450
640
554
432
707
752
603
667
716
644
582
456
328
340
344
158
19
166
55
-218
-45
-5
-190
-90
-160
-301
-153
-44
-120
-283
-205
-20
-210
-210
96
-110
-291
8
16
-206
-93
31
-182
-228
-31
-161
-287
-129
-134
-139
-26
-56
-137
-187
-231
-299
-265
-112
-176
-227
-196
-167
-227
-273
-28
-106
-364
-175
-82
-328
-197
-32
-430
-451
-35
-64
-217
-144
-141
-286
-226
-41
-102
-117
178
160
-49
168
182
6
54
-14
-324
-362
-84
-232
-405
-171
-258
-483
-299
-206
-308
-287
-290
-359
-506
-296
-95
-662
-817
-235
555
1798
2891
2985
1568
-208
-750
-654
-441
-263
-262
-182
-95
-223
-329
-145
-69
-345
-314
-9
-175
-275
-27
-31
-253
-261
-51
-113
-102
-40
-170
-23
100
21
-17
-1
18
14
70
172
64
24
213
138
-17
221
256
83
301
408
238
368
572
380
362
589
640
530
635
722
543
607
763
638
537
653
483
90
104
331
138
-62
100
-59
-239
-29
-106
-233
-150
-170
-248
-127
12
-305
-336
30
-87
-228
-85
-37
-180
-244
-131
-152
-224
-141
-102
-179
-131
-80
-345
-405
47
-22
-303
-52
-71
-287
-222
-67
-192
-371
-143
-142
-273
-118
-372
-439
-20
-19
-258
-251
-185
-378
-397
-250
-219
-161
-83
-100
-388
-402
-74
-208
-226
71
-38
-197
11
186
-118
-91
252
62
-33
81
-148
-449
-356
-89
-336
-477
-151
-285
-454
-352
-440
-453
-221
-127
-319
-304
-161
-480
-862
-592
331
1382
2535
3267
2115
35
-827
-660
-435
-193
-266
-483
-201
-82
-321
-209
-131
-418
-282
33
-88
-176
14
-241
-468
-53
44
-107
-177
-160
-94
-140
34
118
-78
-45
111
-4
-93
122
181
72
99
127
40
147
392
318
32
193
434
309
460
607
473
440
539
477
543
785
732
623
724
806
402
139
562
608
287
340
161
-167
-51
9
-106
-81
-90
-235
-270
-180
-168
-286
-222
-14
-311
-499
-128
-149
-225
-7
-110
-292
-144
-56
-198
-150
-30
-92
-232
-216
-215
-339
-238
-145
-281
-298
-120
-217
-259
-37
-93
-353
-286
-70
-258
-272
-97
-216
-293
-114
-141
-375
-191
-100
-370
-280
-99
-292
-347
-143
-240
-359
-150
-7
-146
-157
-31
-246
-196
201
229
90
110
132
26
-73
-115
-226
-326
-211
-181
-396
-378
-265
-410
-328
-215
-417
-391
-121
-332
-643
-301
-287
-708
-462
454
1538
2681
3293
1973
-328
-823
-367
-573
-345
53
-205
-357
-110
-136
-310
-171
-127
-202
-266
-235
-141
-196
-11
-9
-112
35
-177
-285
-138
-34
81
-38
63
161
-144
-1
154
-14
90
177
43
108
143
-52
103
353
399
298
269
429
384
286
503
605
410
622
727
411
511
785
717
565
707
690
511
509
487
319
165
128
-38
-109
66
22
-251
-153
-103
-338
-170
-112
-224
-212
-288
-320
-225
-69
-153
-218
-70
-110
-296
-213
-45
-106
-226
-124
-118
-260
-151
-187
-221
-150
-215
-184
-167
-171
-148
-274
-328
-196
-168
-243
-176
-238
-342
-206
-152
-265
-303
-173
-197
-265
-256
-331
-310
-252
-206
-220
-268
-204
-266
-261
-51
-25
-170
-82
186
37
-116
119
93
-20
82
-96
-392
-338
-278
-422
-317
-118
-244
-365
-261
-267
-427
-294
-252
-470
-373
-223
-408
-770
-681
78
1077
2305
3237
2514
594
-579
-799
-573
-208
-183
-209
-158
-168
-180
-223
-261
-275
-267
-62
-136
-431
-136
18
-271
-288
-37
-46
-126
20
-76
-168
-28
-6
-34
44
97
-23
21
145
-29
-39
168
151
140
246
180
144
207
353
400
315
502
575
450
533
571
500
543
642
584
573
662
640
487
460
627
446
293
341
234
21
-31
29
-174
-232
-73
-168
-259
-181
-181
-294
-186
-33
-163
-232
-168
-176
-308
-240
-54
-125
-81
-86
-309
-198
-69
-166
-221
-105
-92
-322
-200
-91
-260
-216
-82
-194
-285
-156
-187
-289
-197
-92
-319
-405
-121
-204
-301
-180
-348
-352
-170
-185
-300
-348
-161
-225
-264
-57
-221
-330
-134
-159
-331
-138
123
35
54
127
-74
-106
132
84
-272
-349
-147
-183
-360
-316
-327
-407
-301
-219
-343
-380
-186
-286
-439
-341
-345
-398
-503
-591
44
1297
2363
2944
2215
369
-891
-885
-469
-420
-353
-123
-118
-301
-334
-140
-167
-303
-134
-90
-248
-146
-130
-325
-285
-115
-70
-152
-130
-1
-101
-128
59
3
-131
-82
-29
-50
67
136
8
85
94
13
219
375
179
121
293
240
285
392
326
345
465
525
487
375
437
683
578
454
755
675
490
610
467
330
291
177
1
5
60
-98
-64
-117
-337
-170
-80
-248
-252
-101
-60
-235
-233
-42
-106
-309
-194
-64
-215
-190
-73
-165
-236
-226
-232
-199
-38
-48
-346
-228
-29
-180
-277
-189
-148
-225
-99
-112
-312
-204
-74
-282
-272
-99
-322
-325
-85
-247
-404
-301
-221
-275
-284
-219
-236
-188
-102
-179
-312
-234
-22
-61
-160
-26
-26
-32
177
89
-97
37
-1
-143
-189
-303
-332
-320
-243
-211
-346
-287
-156
-331
-359
-209
-269
-304
-201
-218
-444
-545
-554
-220
861
2078
2875
2653
1130
-439
-905
-547
-267
-304
-326
-103
-100
-315
-125
-197
-309
-127
-194
-185
-61
29
-100
-221
-44
-65
-237
-97
83
-213
-320
102
84
-94
18
-30
-84
-10
113
88
74
206
214
18
85
336
235
190
301
295
316
403
358
401
576
462
401
623
532
394
612
819
633
431
639
435
147
316
343
184
49
133
69
-158
-207
-136
-84
-63
18
-79
-265
-225
-179
-151
9
-24
-208
-120
-84
-231
-156
-18
-93
-130
20
-191
-311
-71
-47
-104
-129
-10
-41
-302
-177
13
-196
-129
60
-259
-359
-54
-63
-198
-156
-186
-253
-188
-227
-268
-80
3
-174
-223
-85
-235
-361
-126
36
-133
-292
-29
49
-163
-11
78
-21
211
196
-177
-81
241
149
-168
-113
-121
-335
-199
-131
-395
-429
-200
-312
-361
-67
-196
-434
-261
-146
-312
-458
-451
-304
571
1836
2704
2899
1576
-279
-866
-559
-262
-222
-231
-222
-313
-309
-115
-87
-242
-148
-30
-109
-214
-116
-36
-133
-197
-157
-82
-91
-28
-123
-225
35
116
-30
82
124
-51
38
166
69
-108
52
282
68
131
271
153
285
344
264
292
436
454
271
494
654
514
584
737
652
576
744
708
472
527
614
355
350
445
193
78
127
-19
-203
-71
37
-136
-125
-19
-157
-274
-117
-116
-271
-101
-144
-372
-211
-37
-140
-189
13
-10
-167
-53
-81
-285
-206
13
-132
-264
-103
-171
-258
-73
-33
-216
-199
-108
-265
-305
-74
-154
-349
-127
-34
-140
-173
-196
-322
-522
-154
69
-220
-127
-34
-250
-271
-128
-185
-261
-123
-33
-211
-161
24
-158
-37
289
130
-14
157
-27
-357
-49
29
-325
-223
-30
-217
-351
-189
-172
-397
-352
-213
-358
-307
-288
-449
-292
-243
-454
-580
-87
1120
2190
2790
2648
881
-776
-640
-274
-331
-194
-131
-302
-198
-83
-307
-295
-45
-130
-262
-123
-108
-265
-174
-25
-163
-303
-94
75
-125
-98
117
-115
-117
130
-43
-117
50
110
47
45
23
15
271
403
211
128
330
333
105
269
478
205
222
620
527
457
666
623
392
600
912
629
594
783
503
336
507
356
79
98
101
-67
-78
24
-161
-231
-51
-156
-272
-83
-24
-163
-155
-144
-150
-170
-236
-168
-258
-209
-94
-304
-204
48
-67
-204
-139
-230
-354
-82
27
-212
-210
-67
-148
-245
-162
-205
-277
-107
-59
-229
-172
-126
-333
-282
-216
-240
-196
-92
-93
-323
-295
-121
-224
-374
-222
-153
-271
-167
-23
-275
-381
12
13
-136
109
129
58
128
89
-20
-56
192
120
-232
-134
-158
-353
-246
-234
-439
-357
-207
-322
-370
-250
-281
-479
-325
-133
-336
-518
-492
-334
542
1893
2811
2940
1613
-323
-1022
-590
-351
-269
-192
-208
-141
-276
-240
-126
-303
-205
-29
-254
-377
-125
-51
-253
-192
-113
-182
-93
30
-28
-184
-98
49
-22
36
122
-34
-15
181
102
-15
191
228
-15
-18
252
217
94
431
452
239
416
499
399
475
559
467
577
697
542
550
766
783
468
356
550
443
335
411
261
22
36
56
-82
-16
-98
-304
-136
4
-177
-309
-171
-121
-347
-285
-46
-154
-223
-124
-192
-317
-215
-83
-217
-203
-7
-62
-196
-153
-155
-186
-130
-222
-234
-101
-60
-216
-309
-143
-120
-211
-85
-165
-436
-316
-201
-325
-216
-13
-182
-270
-156
-390
-395
-100
-114
-249
-219
-66
-205
-415
-277
-223
-253
-87
66
-68
-163
-57
-162
-77
270
191
-23
103
91
-215
-385
-301
-190
-320
-218
-51
-400
-376
-193
-431
-311
-181
-354
-419
-359
-345
-372
-437
-545
-266
837
2075
2875
2905
1253
-538
-914
-656
-321
-195
-204
-110
-162
-258
-161
-194
-362
-182
-29
-121
-300
-291
-44
-147
-53
73
-156
-46
15
-247
-177
50
2
-20
152
90
-38
16
-50
-68
96
269
287
167
198
318
144
227
471
294
355
519
289
278
609
618
444
633
782
369
314
887
877
636
777
643
348
406
405
44
-78
176
28
-133
70
-25
-247
-210
-159
-232
-181
-40
-124
-280
-118
-48
-218
-133
-30
-158
-109
-5
-110
-209
-160
-75
-142
-92
7
-206
-277
-108
-183
-252
-110
-117
-270
-189
-43
-197
-183
-46
-216
-299
-211
-193
-366
-320
-64
-204
-269
-37
-169
-325
-60
-105
-325
-130
-128
-272
-200
-252
-312
-202
-79
-44
-101
-173
-38
56
2
208
231
73
102
15
-90
-79
-131
-241
-286
-308
-327
-274
-188
-306
-340
-230
-298
-322
-287
-169
-300
-396
-301
-682
-719
297
1529
2481
3223
2452
139
-1023
-697
-319
-245
-208
-50
-247
-406
-217
-312
-300
-49
-89
-248
-171
-38
-268
-302
10
-96
-295
-122
3
-112
-103
41
-11
-33
47
-40
-100
107
160
-24
118
185
-8
91
203
186
270
353
328
126
262
562
359
327
666
598
485
670
619
532
602
639
565
583
804
688
388
448
417
196
230
126
-136
-61
45
-197
-252
-111
-233
-223
-84
4
-198
-298
-58
-247
-243
-90
-237
-208
-65
-48
-216
-126
12
-142
-159
-52
-181
-384
-141
71
-136
-170
-113
-232
-193
-102
-239
-218
-105
-160
-245
-195
-49
-157
-291
-214
-172
-200
-117
-152
-382
-290
-93
-204
-283
-184
-164
-286
-250
-94
-163
-222
-157
-167
-130
21
-46
-224
29
241
91
67
146
42
-73
-58
-200
-361
-208
-60
-238
-298
-316
-327
-247
-161
-176
-422
-359
-210
-338
-157
-85
-681
-796
-254
617
1769
2989
3343
1531
-440
-795
-548
-307
-79
-74
-215
-137
-194
-420
-266
-8
-197
-311
-7
-34
-322
-182
-22
-143
-54
83
31
-87
-1
42
-347
-168
210
-59
-1
208
-66
-24
292
161
46
168
284
159
132
317
236
271
421
405
339
443
491
414
620
715
564
640
820
704
622
770
776
614
469
505
480
303
309
37
-254
66
151
-127
-167
-64
-103
-246
-135
-68
-255
-155
-35
-151
-164
-153
-158
-225
-226
-65
-151
-153
-17
-299
-290
-24
-120
-144
7
-59
-234
-183
-76
-148
-193
-48
-129
-334
-211
-64
-297
-375
-127
-225
-257
-49
-137
-318
-164
-46
-317
-210
-20
-305
-310
-235
-367
-268
-59
-92
-355
-240
-97
-330
-284
-153
-155
-37
42
-7
23
181
141
-11
14
84
24
-141
-163
-251
-339
-240
-212
-273
-285
-246
-281
-352
-327
-299
-387
-335
-318
-405
-264
-348
-726
-284
1122
2287
3073
2891
1002
-684
-822
-437
-357
-272
-224
-241
-160
-215
-178
-182
-383
-258
-114
-150
-116
-107
-223
-198
27
-131
-171
38
-81
-234
-38
82
-205
-53
123
-56
49
72
-15
65
175
175
115
199
258
92
171
404
168
170
576
422
238
535
602
426
566
718
657
602
687
787
632
649
681
396
379
481
276
120
179
-65
-224
31
3
-161
-105
-134
-276
-245
-115
-108
-345
-238
-70
-303
-167
-31
-267
-186
-68
-192
-177
-131
-150
-206
-103
-65
-201
-154
-60
-110
-213
-176
-56
-272
-333
-134
-354
-311
-45
-125
-260
-215
-140
-361
-321
-47
-183
-349
-189
-183
-417
-170
-103
-422
-226
-67
-301
-364
-193
-128
-243
-215
-85
-261
-283
-95
-77
-199
-150
34
70
187
199
147
150
19
-240
-338
-181
-194
-346
-322
-293
-390
-381
-270
-307
-351
-314
-347
-377
-320
-230
-417
-603
-504
-126
1007
2348
3160
2800
962
-607
-895
-487
-216
-270
-233
-163
-174
-228
-211
-153
-219
-328
-242
-141
-153
-93
-48
-129
-70
-68
-175
-58
12
-216
-287
-8
18
-90
30
56
-41
65
162
-3
67
207
26
48
296
274
157
312
359
188
297
594
414
227
517
642
481
440
696
737
673
763
733
565
545
653
492
351
348
170
45
104
-42
-211
-56
-121
-420
-278
-99
-236
-219
5
-36
-309
-165
-56
-302
-169
-13
-254
-260
-81
-163
-301
-180
-48
-82
-171
-175
-144
-238
-134
-84
-206
-69
-79
-381
-300
-105
-156
-260
-229
-132
-314
-241
-143
-312
-204
-168
-258
-238
-170
-249
-421
-268
-99
-263
-331
-293
-229
-203
-164
-205
-355
-174
-45
-150
-108
103
14
-100
220
198
-89
-26
-1
-147
-208
-375
-452
-288
-238
-270
-287
-225
-200
-430
-476
-322
-418
-391
-114
-192
-452
-444
-428
41
1232
2452
2996
2110
442
-719
-876
-379
-207
-228
-170
-232
-343
-274
-44
-145
-268
-96
-50
-266
-273
22
-68
-352
-105
41
-218
-48
51
-247
-121
83
-48
-114
32
66
-108
87
193
-107
6
207
120
151
274
264
142
260
421
233
319
584
381
324
582
539
448
716
786
549
575
650
606
577
571
453
263
324
346
178
139
104
-68
-117
-97
-132
-186
-181
-123
-178
-213
-162
-161
-110
-77
-140
-205
-154
-155
-294
-140
-4
-150
-146
-94
-198
-276
-65
37
-280
-280
-142
-286
-264
-116
-183
-281
-64
13
-259
-280
-130
-277
-349
-143
-176
-343
-274
-224
-335
-266
-206
-346
-218
-54
-197
-287
-199
-164
-297
-306
-124
-131
-123
-23
-148
-207
50
151
-103
16
150
-64
-13
-25
-295
-311
-221
-295
-347
-422
-303
-290
-405
-232
-278
-414
-280
-316
-460
-270
-260
-586
-274
762
1703
2663
2923
1316
-535
-900
-496
-355
-337
-148
-181
-363
-187
-164
-373
-288
-151
-169
-147
-139
-207
-137
-96
-209
-175
-50
-19
-159
-194
-7
-82
-180
-22
86
-20
-1
73
-84
-74
190
196
20
210
264
13
94
364
214
214
596
361
311
567
336
329
529
570
563
584
649
686
588
515
504
340
394
456
181
181
260
-46
-141
22
-93
-240
-173
-84
-200
-262
-68
-132
-325
-300
-219
-154
-72
26
-131
-193
-98
-230
-210
-159
-194
-185
-113
-31
-225
-246
-226
-343
-209
-53
-59
-155
-114
-69
-225
-270
-85
-124
-329
-100
-46
-345
-202
-90
-204
-282
-194
-103
-370
-295
-18
-202
-266
-136
-210
-211
-42
19
-156
-102
137
24
23
135
31
60
219
131
-170
-279
-146
-253
-368
-177
-149
-202
-150
-212
-335
-198
-129
-287
-340
-357
-299
-212
-276
-496
-325
727
1913
2631
2723
1361
-492
-859
-419
-330
-268
-141
-108
-231
-280
-91
-108
-196
-255
-239
-71
-4
-29
-107
-174
-110
-39
-53
-29
-101
-103
-73
-174
-86
139
208
81
12
82
-25
-32
232
248
85
255
350
-62
19
448
334
202
495
526
245
478
624
358
439
704
624
643
831
640
447
571
722
558
376
451
236
-103
119
210
-83
-45
-29
-183
-196
-104
-98
-139
-44
-148
-338
-161
-36
-198
-164
-27
-102
-246
-268
-184
-146
-122
-141
-136
-74
-216
-258
-176
-131
-44
-149
-113
29
-322
-479
-121
-46
-215
-85
15
-236
-231
-88
-336
-320
-36
-114
-162
-86
-102
-346
-449
-75
-96
-226
-76
-250
-286
-117
-142
-127
60
115
-82
-55
113
24
-2
183
196
-55
-64
25
-325
-424
-99
-141
-326
-136
-140
-337
-150
-236
-432
-270
-155
-226
-246
-135
-359
-739
-565
326
1346
2337
3133
2368
322
-769
-568
-390
-223
34
-209
-260
16
-255
-355
6
-25
-242
-204
-93
-165
-104
-30
-150
-105
-176
-257
-144
21
108
13
-33
33
47
-86
105
250
10
15
126
68
141
281
207
134
220
340
233
211
472
440
425
649
499
320
640
799
589
615
764
705
684
681
625
573
569
496
182
234
355
40
-63
77
-81
-193
3
8
-246
-190
-51
-229
-217
-42
-120
-229
18
-58
-279
-65
-8
-215
-294
27
45
-188
-38
-71
-173
-12
-38
-218
-186
-95
-116
-189
-89
-29
-218
-169
-29
-204
-285
-191
-225
-170
-48
-104
-196
-188
-102
-194
-278
-58
-142
-363
-169
-181
-354
-104
-75
-324
-202
24
-45
-56
111
137
19
19
70
-13
93
212
-51
-237
-213
-331
-333
-193
-226
-403
-352
-274
-305
-239
-266
-313
-310
-252
-193
-256
-494
-605
-160
948
2340
3134
2679
826
-743
-862
-529
-166
-153
-382
-176
-31
-372
-319
-61
-283
-174
-13
-296
-261
-113
-124
-156
-151
-21
-68
-48
41
-82
-120
-101
-167
-78
58
88
62
120
122
-20
-12
178
213
6
165
397
109
74
382
302
290
561
573
391
510
653
581
652
758
654
533
569
612
661
704
642
390
219
302
179
51
128
-72
-227
-74
-56
-132
-261
-221
-116
-190
-89
-25
-276
-416
-198
-119
-169
-4
-46
-259
-89
-53
-406
-267
60
-153
-201
-24
-118
-265
-214
-209
-372
-81
127
-186
-199
-80
-237
-380
-364
-207
-108
-92
-110
-261
-280
-173
-244
-434
-259
-75
-234
-225
-186
-308
-403
-219
-173
-252
-60
-75
-218
-69
61
-76
10
182
-13
-84
101
129
-63
-165
-187
-340
-327
-297
-376
-297
-120
-315
-542
-213
-165
-504
-345
-76
-250
-375
-336
-543
-402
836
2271
3012
2812
1180
-554
-898
-482
-194
-198
-247
-203
-275
-300
-107
-174
-247
-65
-179
-404
-151
80
-164
-195
-13
-176
-151
105
36
-147
27
103
-196
-183
81
62
27
1
-152
66
306
196
51
211
423
295
201
252
377
392
389
476
392
507
700
483
451
764
773
580
747
838
538
639
766
540
550
561
361
133
111
97
-144
-135
43
-81
-241
-118
-99
-212
-140
-96
-165
-224
-142
-128
-258
-59
15
-274
-116
-27
-253
-156
32
-111
-202
-23
-79
-240
-159
-176
-377
-170
75
-88
-200
-60
-203
-455
-159
-112
-277
-83
-62
-217
-254
-310
-213
-184
-269
-99
-169
-185
-210
-420
-232
-35
-67
-215
-189
50
-138
-178
109
-117
-102
229
181
91
51
112
19
-107
-90
-259
-270
-189
-271
-309
-293
-228
-342
-365
-202
-400
-490
-214
-54
-289
-421
-430
-674
-122
1277
2325
3023
2799
842
-854
-816
-334
-345
-239
16
-282
-395
37
-77
-396
-65
27
-254
-117
17
-181
-230
-5
-13
-274
-106
52
-276
-169
1
-164
-22
220
191
25
79
141
-78
-41
275
244
148
221
173
116
231
379
271
301
542
425
451
667
527
453
681
750
623
742
931
757
584
762
714
399
485
501
207
224
112
-74
-50
-169
-79
-29
-104
21
-104
-215
-109
-190
-200
-20
-116
-262
-171
-173
-345
-250
76
-99
-261
23
11
-294
-149
-11
-260
-252
-11
-17
-205
-57
-63
-360
-141
8
-331
-218
38
-209
-248
-155
-354
-342
-83
-50
-255
-254
-69
-132
-224
-215
-330
-306
-174
-149
-279
-272
-9
-56
-101
121
82
-91
96
172
-201
56
315
-88
-142
-134
-304
-300
-188
-224
-344
-262
-334
-434
-238
-167
-261
-349
-323
-349
-383
-307
-443
-745
-345
1016
2289
2995
2819
1139
-625
-793
-354
-423
-346
-111
-360
-394
-62
-203
-472
-221
-104
-247
-249
-184
-128
-214
-106
9
-234
-167
46
-99
-212
-195
-138
-76
45
16
-256
-113
167
41
20
236
79
-29
192
166
155
337
357
113
155
441
500
388
433
646
536
430
707
764
620
751
706
528
600
629
555
401
251
199
169
109
16
-95
-68
-108
-236
-163
-166
-333
-337
-125
-184
-506
-351
-140
-356
-215
18
-144
-221
-140
-155
-346
-443
-185
-100
-227
-152
-120
-240
-339
-227
-165
-198
-166
-227
-260
-152
-220
-404
-276
-223
-323
-153
-148
-322
-192
-97
-446
-586
-238
-176
-314
-196
-193
-402
-374
-103
-176
-269
-8
-70
-219
-23
129
-69
-91
57
-125
-213
-190
-233
-272
-272
-283
-414
-313
-194
-446
-525
-293
-313
-563
-356
-97
-372
-397
-365
-904
-672
673
1823
2641
3031
1647
-448
-1012
-555
-383
-422
-139
-121
-397
-290
-160
-363
-370
-280
-224
-87
-126
-178
-222
-155
-90
-269
-233
-69
-169
-233
-42
-133
-225
109
-14
-277
16
135
25
7
-71
7
109
185
229
60
112
330
211
68
380
450
290
506
440
283
528
712
653
572
626
611
508
528
676
541
377
376
165
50
102
-65
-278
-93
-1
-201
-137
-179
-425
-239
-64
-231
-215
-80
-257
-366
-108
-167
-351
-188
-207
-242
-177
-116
-175
-404
-159
82
-143
-180
-94
-153
-258
-249
-177
-247
-202
-187
-321
-220
-157
-254
-262
-218
-142
-355
-477
-153
-181
-337
-217
-150
-278
-269
-162
-307
-210
48
-84
-185
23
7
-91
23
100
-56
-95
-74
-481
-482
-82
-196
-354
-215
-200
-364
-336
-264
-397
-450
-307
-306
-552
-410
-263
-547
-387
492
1412
2340
2929
1821
-282
-1071
-576
-315
-294
-126
-234
-296
-128
-320
-391
-133
-181
-387
-204
24
-194
-234
-97
-283
-223
6
-155
-261
-2
-4
-254
-120
122
61
-113
42
134
-51
39
44
-229
-30
342
180
9
197
237
128
227
314
309
387
550
480
298
521
681
531
653
748
604
559
558
527
390
441
442
167
28
13
54
11
-60
-109
-298
-280
-48
-148
-201
39
-173
-370
-36
-147
-362
-72
-148
-334
-168
-148
-201
-176
-59
-35
-219
-129
-18
-338
-284
102
-141
-308
-50
-37
-270
-317
-67
-190
-200
92
-121
-182
52
-317
-531
-152
-83
-173
-116
-34
-148
-323
-205
-116
-147
70
113
-82
-44
-61
-131
44
244
98
-12
48
-37
-222
-266
-220
-325
-227
-36
-188
-335
-237
-231
-357
-283
-181
-342
-284
-206
-501
-539
-242
541
1658
2573
2970
1607
-273
-672
-608
-438
-57
0
-153
-189
-104
-241
-303
0
1
-266
-67
65
-178
-213
-45
-46
-151
23
-2
-120
-69
-188
-147
55
170
111
49
68
27
-4
93
169
6
104
257
64
-19
254
397
204
448
636
248
236
607
614
527
722
712
614
714
654
551
619
743
636
522
603
378
111
201
175
-156
-165
106
6
-129
2
-108
-288
-132
-80
-223
-108
-21
-279
-339
-52
-12
-247
-179
31
-96
-141
-128
-246
-243
-171
-62
-169
-83
-58
-380
-173
60
-193
-222
39
-67
-248
-188
-130
-155
-161
-68
-115
-229
-242
-202
-249
-157
-56
-253
-151
-221
-559
-332
-46
-43
-72
65
129
-50
5
238
8
-231
72
208
21
11
-35
-313
-177
-263
-717
-324
-23
-258
-254
-155
-209
-302
-406
-499
-338
-133
-133
-347
-594
-129
1043
1769
2526
2779
1106
-483
-558
-348
-286
-237
-317
-261
-195
-107
-152
-215
-62
-154
-192
-212
-403
-262
-45
3
-79
-104
-2
-176
-341
-212
-18
59
71
124
15
-17
172
-81
-242
185
227
-1
134
261
179
31
59
263
317
500
575
376
452
678
472
211
596
800
635
777
838
650
633
551
293
422
663
457
224
290
195
-54
-53
-129
-197
-108
-54
-23
-144
-113
-52
-339
-437
-32
-62
-310
-75
-143
-289
-136
-138
-127
-60
-58
-113
-225
-187
-233
-300
-9
21
-238
-46
17
-337
-339
-96
-122
-259
-91
-25
-196
-141
-157
-380
-405
-165
-70
-214
-93
-132
-446
-267
-73
-255
-220
20
-71
-192
10
-138
-394
-51
227
120
94
216
135
-36
56
-236
-530
-132
35
-196
-218
-118
-229
-432
-307
-144
-301
-336
-290
-338
-343
-201
-276
-575
-419
180
1177
2523
3215
2290
295
-647
-422
-348
-168
-42
-229
-283
-270
-359
-229
35
-104
-234
-34
-48
-232
-236
-139
-163
-118
41
-25
-158
-72
-28
-167
-206
78
99
-79
191
165
-179
-77
143
119
154
283
199
79
259
361
126
184
427
304
335
640
556
406
669
715
569
677
743
653
748
786
488
400
506
424
233
186
191
-25
-39
-39
-196
-90
28
-109
-240
-81
-159
-414
-227
-60
-167
-206
-83
-142
-412
-309
-77
-171
-232
-46
-79
-189
-62
-206
-338
-63
-134
-337
-103
-14
-239
-184
-163
-338
-156
-51
-186
-314
-320
-197
-269
-292
-60
-157
-374
-191
-130
-274
-237
-184
-282
-294
-117
-165
-234
-120
-225
-362
-185
13
-109
-175
-79
-11
67
150
139
-80
4
88
-207
-196
-68
-236
-353
-202
-205
-396
-280
-162
-359
-391
-266
-335
-411
-226
-174
-418
-532
-662
-421
680
1929
2875
3100
1703
-280
-1046
-655
-172
-260
-297
-36
-117
-255
-109
-234
-365
-234
-194
-280
-302
-31
-52
-232
-41
-122
-251
-16
0
-185
-53
-21
-118
-76
28
27
-222
-90
112
126
178
111
64
151
244
254
123
156
345
240
247
425
455
426
515
558
344
528
885
718
658
815
719
578
652
605
296
257
369
204
51
106
0
-194
-51
-93
-369
-189
-90
-291
-245
-69
-62
-246
-319
-196
-135
-137
-124
-204
-221
-203
-180
-86
-139
-142
-160
-101
-14
-364
-308
5
-150
-257
-105
-53
-201
-141
-161
-287
-135
-120
-247
-244
-97
-116
-287
-253
-210
-277
-253
-85
-242
-413
-263
-182
-195
-172
-129
-222
-253
-144
-118
-190
-127
-47
-63
70
118
85
109
78
12
-76
-133
-198
-285
-188
-40
-404
-605
-199
-196
-335
-144
-211
-597
-496
-167
-282
-365
-354
-463
-549
98
1300
2325
3167
2697
618
-762
-629
-370
-622
-501
-1
-178
-281
-48
-150
-192
-96
-181
-276
-178
-69
-171
-68
55
-165
-220
-82
-47
-101
10
-3
-266
-162
85
-47
-97
222
104
-191
183
297
-6
147
219
59
148
243
269
370
435
423
361
474
613
431
458
699
601
441
666
786
572
648
760
456
379
585
419
219
301
202
-216
-224
-126
-300
-72
67
-81
-226
-314
-203
-182
-159
-124
-280
-236
-123
-255
-274
-86
-3
-179
-162
-129
-406
-261
41
-114
-240
-77
-115
-226
-240
-271
-229
-255
-63
-31
-183
-121
-297
-352
-180
-164
-235
-215
-132
-216
-321
-288
-241
-267
-228
-68
-160
-259
-102
-318
-678
-355
-19
-211
-129
42
-94
-126
-14
-7
-10
207
176
-35
29
31
-270
-412
-189
-231
-338
-137
-299
-512
-324
-265
-339
-324
-134
-238
-394
-143
-280
-556
-470
-577
-382
886
2254
3103
2946
1107
-537
-845
-600
-232
-289
-315
-37
-239
-395
-39
0
-193
-106
-65
-179
-192
-158
-159
-227
-130
-51
-114
-36
-75
-216
-188
45
19
-50
191
197
-23
-40
108
10
38
279
87
97
359
248
146
220
271
351
422
535
470
249
547
618
421
667
756
571
692
948
658
505
801
683
412
433
335
2
-31
131
-3
-122
9
-37
-306
-187
-69
-241
-105
-10
-175
-148
-104
-271
-308
-93
59
-151
-196
1
-153
-364
-240
-136
-256
-50
105
-125
-113
-82
-334
-339
-62
-53
-247
-153
0
-130
-244
-197
-280
-419
-174
-127
-210
-165
-357
-331
-187
-76
-97
-227
-127
-97
-362
-431
-261
-312
-220
63
-10
-165
-135
-96
-27
167
230
-13
-52
139
-26
-245
-155
-222
-358
-227
-238
-364
-284
-312
-407
-449
-297
-240
-378
-206
-194
-429
-595
-578
-164
829
2146
3037
2814
1132
-443
-812
-645
-251
-241
-423
-136
-155
-483
-182
42
-176
-162
-49
-223
-258
-28
-101
-284
-153
-55
-279
-228
49
-43
-228
3
161
53
35
-5
-42
47
96
-23
55
106
106
124
121
337
283
154
335
219
61
467
616
442
519
580
529
504
642
671
643
728
532
387
592
626
284
248
441
174
-23
79
54
-122
-141
-76
-222
-223
-60
-226
-350
-166
-175
-316
-223
-142
-348
-399
-81
-5
-111
-85
-116
-254
-216
-81
-243
-225
16
-226
-301
-81
-366
-410
-162
-226
-257
-118
-56
-134
-250
-214
-180
-389
-320
-85
-277
-354
-198
-396
-386
-134
-232
-391
-253
-123
-333
-321
-73
-211
-402
-69
82
-219
-74
207
-39
-99
144
-54
-370
-305
-228
-476
-351
-55
-295
-452
-281
-307
-497
-349
-285
-468
-249
-157
-519
-613
-487
-530
-152
1035
2151
2762
2551
754
-914
-758
-282
-378
-357
-133
-157
-376
-328
-73
-213
-405
-244
-245
-220
-4
-130
-385
-133
27
-167
-144
-8
-97
-182
-20
-81
-181
35
-83
-293
56
162
-102
-14
194
216
1
82
286
-10
92
470
340
243
397
321
216
424
528
419
453
692
633
445
663
714
574
411
376
565
284
111
281
197
156
67
-213
-201
-42
-189
-198
-85
-269
-316
-146
-167
-309
-148
20
-188
-245
-171
-143
-328
-311
20
-152
-187
9
-196
-243
-115
-220
-208
-80
-103
-191
-122
-88
-234
-245
-105
-155
-374
-199
-142
-350
-300
-207
-153
-201
-183
-207
-404
-220
-110
-370
-207
-20
-252
-279
-68
-134
-265
101
93
-285
65
248
-48
-12
63
-227
-411
-181
-209
-511
-366
-180
-418
-489
-201
-297
-596
-374
-157
-285
-245
-195
-482
-701
-241
676
1644
2514
2646
1230
-463
-773
-724
-586
-174
-190
-315
-107
-172
-490
-251
-59
-314
-260
-10
-187
-357
-97
-191
-352
-30
-38
-303
-157
22
-232
-230
68
78
-37
-19
45
-88
-91
111
18
-76
56
135
53
33
256
224
159
379
385
270
389
500
414
477
556
477
536
508
516
662
750
684
399
422
513
223
171
205
-185
-149
256
125
-157
-135
-39
-186
-201
5
-123
-249
-101
-267
-352
-62
-172
-257
-66
34
-82
-210
-152
-222
-196
-3
45
-151
-274
-107
-140
-185
-41
-182
-278
-81
-122
-287
-132
-49
-212
-155
8
-195
-309
-79
-25
-188
-245
-186
-232
-221
-145
-135
-237
-257
-33
-76
-152
97
29
-43
157
39
-17
177
193
2
-6
110
-232
-371
-227
-378
-302
-89
-85
-401
-456
-36
-168
-406
-91
-140
-395
-314
-455
-607
-24
1148
2091
2716
2651
949
-700
-735
-422
-393
-181
8
-216
-260
-87
-304
-439
-157
32
-180
-208
-30
-139
-159
-80
-117
-143
-159
-86
-69
-67
23
-69
-138
40
57
-147
-14
117
21
87
170
73
31
267
299
143
220
284
249
346
445
362
337
572
612
440
591
690
524
586
780
664
453
597
576
242
450
535
171
149
76
-123
-59
150
82
-187
-131
-53
-341
-358
56
-115
-357
-83
-73
-259
-219
-22
-89
-139
-80
-206
-191
-133
-212
-185
47
-10
-268
-188
-212
-309
-135
-80
-94
-100
-148
-113
-201
-332
-144
-131
-293
-91
-164
-393
-133
-122
-431
-259
0
-213
-279
-93
-139
-218
-165
-145
-167
-75
67
85
76
183
40
-108
24
32
-74
-219
-212
-166
-365
-405
-225
-270
-268
-155
-322
-333
-146
-316
-476
-201
-152
-506
-591
-265
638
1921
2865
2923
1299
-372
-680
-655
-291
-3
-188
-301
-249
-232
-201
-94
-77
-106
-98
-161
-235
-120
53
-100
-195
-60
-155
-178
-22
56
-21
-17
169
-36
-174
30
-94
-70
268
279
94
128
220
29
-20
342
397
208
323
444
373
354
540
503
319
538
694
606
731
840
637
458
616
759
639
624
567
344
304
261
34
2
171
64
-279
-141
37
-160
-109
33
-116
-198
-90
-296
-278
54
-76
-227
-114
-21
-67
-231
-138
-125
-173
-93
-126
-100
-50
0
-232
-257
41
-133
-261
-58
-34
-246
-206
-37
-167
-168
-102
-263
-234
-126
-164
-140
-68
-81
-323
-300
-57
-209
-295
-131
-196
-237
-70
-22
-115
-59
155
94
-45
67
22
-180
12
45
-300
-267
-118
-272
-412
-245
-349
-512
-203
-277
-516
-323
-151
-298
-376
-280
-427
-646
-229
1022
2177
2973
2893
979
-626
-627
-500
-405
-210
-148
-202
-209
-150
-318
-304
-19
-130
-276
-104
-80
-217
-198
18
-43
-262
-127
5
-36
-56
-68
-132
-85
136
-10
-207
125
160
-58
147
237
82
-34
15
174
240
382
426
208
299
446
258
414
647
485
447
572
624
562
598
716
539
575
713
564
520
610
414
102
201
227
-84
-257
-84
-39
-254
-89
-15
-267
-108
-136
-363
-192
-97
-126
-271
-252
-55
-161
-108
-81
-276
-152
-45
-225
-244
-15
-94
-257
-67
-104
-303
-189
-41
-142
-294
-138
-62
-260
-209
-177
-319
-291
-133
-195
-379
-99
-120
-387
-160
-193
-358
-246
-139
-217
-350
-156
-67
-222
-69
83
-33
-71
141
65
-159
119
65
-243
-310
-237
-160
-269
-247
-346
-407
-149
-260
-525
-320
-290
-506
-367
-144
-256
-489
-512
-528
-482
491
1999
2846
2947
1668
-402
-1006
-486
-373
-336
-159
-251
-309
-213
-109
-214
-328
-123
-107
-366
-190
45
-258
-169
74
-216
-266
-58
29
-126
-135
11
-140
-81
86
-100
-91
202
132
-92
-51
207
165
20
281
247
14
169
263
271
452
538
458
502
511
404
532
719
710
622
557
679
709
560
566
520
493
406
241
170
137
81
-67
-105
-47
-130
-165
-35
-98
-263
-187
-112
-240
-339
-185
-172
-289
-104
-39
-172
-99
-95
-209
-48
44
-187
-166
-32
-95
-223
-250
-48
-173
-277
-23
-107
-225
-90
-149
-279
-215
-138
-131
-185
-262
-164
-146
-219
-247
-317
-271
-64
-97
-211
-73
-232
-335
-105
-141
-154
1
86
39
26
142
60
-41
30
94
-26
-139
-181
-303
-301
-204
-291
-461
-289
-333
-544
-258
-137
-444
-522
-205
-214
-443
-465
-518
-222
990
2328
3038
2714
944
-701
-874
-375
-306
-470
-240
-144
-400
-281
-52
-246
-253
8
-78
-276
-83
-20
-232
-97
40
-211
-243
-174
-218
-70
98
74
-96
-17
195
-24
-154
99
101
17
167
318
106
91
401
223
62
322
431
289
232
413
420
421
614
623
625
771
801
643
686
820
631
557
668
506
438
502
217
31
54
-7
15
57
-94
-260
-195
-41
-49
-310
-177
10
-382
-243
110
-97
-217
-137
-75
-181
-236
-177
-283
-217
9
-52
-112
-62
-240
-237
-67
-76
-101
-117
-38
-154
-326
-207
-175
-215
-168
-160
-257
-240
-156
-244
-222
-125
-214
-336
-208
-130
-313
-266
-73
-192
-447
-178
35
-174
71
223
25
81
135
42
-60
-34
-26
-237
-276
-146
-341
-442
-268
-383
-532
-324
-247
-378
-253
-146
-271
-397
-318
-451
-703
-439
277
1300
2464
3143
2143
95
-961
-837
-427
-164
-204
-292
-134
-75
-194
-211
-118
-171
-334
-237
-142
-255
-173
-52
-97
-97
-121
-306
-296
-6
-3
-144
16
102
-104
-71
118
-9
-133
143
160
-55
43
204
173
42
195
228
170
391
388
287
398
477
410
435
616
561
449
529
567
690
747
640
523
513
501
216
132
243
124
10
82
50
-145
-211
-124
-176
-274
-158
-119
-391
-302
-12
-285
-305
-15
-203
-257
12
-179
-320
-30
-7
-236
-149
-51
-193
-238
-202
-148
-180
-152
-83
-182
-275
-204
-243
-371
-142
-59
-315
-225
-90
-271
-304
-187
-300
-312
-125
-211
-362
-257
-181
-317
-344
-111
-89
-163
14
58
-70
71
204
-101
-18
247
-71
-297
-274
-321
-424
-332
-134
-356
-384
-166
-408
-423
-220
-334
-393
-271
-153
-369
-555
-469
-234
904
2301
2766
2279
747
-564
-731
-438
-237
-335
-345
-164
-136
-282
-205
-164
-382
-294
-65
-147
-251
-96
-195
-424
-90
68
-231
-140
55
-175
-175
88
-5
-227
-155
61
24
-15
164
58
-45
151
42
-72
215
292
79
234
429
166
135
476
620
448
401
547
502
483
648
692
493
550
739
506
345
516
345
162
279
115
-33
66
34
-170
-185
-155
-191
-91
-18
-159
-231
-145
-196
-243
-157
-148
-242
-194
-126
-211
-217
-15
-10
-219
-115
-134
-324
-99
9
-146
-145
-53
-136
-264
-199
-158
-172
-187
-112
-135
-314
-159
-15
-308
-313
-38
-213
-300
20
-189
-482
-160
-171
-354
-63
76
-155
-161
-28
-5
-8
40
68
14
99
61
-226
-298
-283
-286
-255
-255
-263
-416
-381
-234
-421
-360
-151
-520
-518
-15
-253
-638
-441
10
811
1902
2713
2252
580
-510
-666
-687
-467
-191
-181
-254
-142
-183
-445
-240
-56
-308
-229
-54
-234
-276
-152
-157
-178
-97
-39
-219
-188
19
-304
-349
81
42
-144
51
49
-179
31
188
23
100
199
-29
14
246
190
135
225
336
264
186
432
468
378
523
537
505
601
645
535
601
471
330
463
377
398
297
225
158
-71
29
75
-118
-170
-39
-85
-220
-161
-168
-305
-167
-47
-191
-113
-97
-210
-303
-206
15
-90
-117
-70
-157
-165
-202
-203
-107
-33
-43
-229
-116
-45
-263
-118
46
-86
-173
-98
-149
-309
-217
16
-122
-186
35
-190
-313
-115
-136
-197
-101
-74
-221
-183
47
46
-53
81
134
-10
115
264
-5
-50
171
3
-249
-180
-127
-193
-266
-343
-245
-168
-133
-217
-426
-233
-180
-485
-388
-85
-208
-506
-340
365
1364
2414
2875
1816
-29
-809
-599
-466
-276
3
-221
-327
-93
-122
-137
-50
-161
-257
-202
-188
-187
-22
78
-90
-64
10
-153
-123
66
-156
-220
152
164
-40
-43
111
40
-39
176
207
52
169
321
94
183
349
110
204
385
424
423
493
579
421
508
533
470
580
697
736
627
750
585
364
581
617
407
259
237
116
-48
58
105
-71
-31
25
-118
-212
-190
-195
-249
-151
-59
-127
-69
-7
-110
-103
-16
-57
-207
-189
-50
-123
-165
-18
-99
-178
10
-102
-333
-144
20
-228
-184
-104
-270
-56
77
-204
-340
-31
41
-229
-209
-19
-203
-283
-37
-143
-327
-197
-106
-251
-77
170
-72
-71
115
-37
-20
167
120
20
94
156
-56
-229
-126
-242
-405
-193
-132
-278
-196
-103
-339
-448
-217
-354
-497
-97
-28
-359
-489
-432
11
1058
2309
2986
2272
575
-627
-807
-416
-195
-230
-147
-162
-263
-306
-218
-94
-205
-130
45
-105
-147
19
-109
-283
-47
13
-153
-40
51
-170
-137
137
58
-176
90
247
-115
-52
169
41
29
333
273
5
197
348
228
235
355
297
249
439
491
496
518
431
561
607
608
691
639
755
698
498
712
661
237
159
220
153
52
54
-24
-108
-21
-35
-224
-245
-49
-173
-288
-79
-40
-177
-77
-80
-375
-358
-121
-58
-161
-110
-34
-139
-61
-37
-216
-182
-79
-184
-236
-77
-120
-259
-150
-76
-243
-417
-222
-63
-173
-158
-126
-207
-125
-143
-403
-339
-120
-168
-202
-33
-130
-268
-151
-186
-264
-106
-45
-195
-136
55
44
12
185
104
-86
-19
15
-51
-103
-107
-234
-329
-230
-202
-407
-379
-156
-354
-501
-291
-369
-459
-122
-72
-413
-488
-404
-182
979
2465
3102
2418
684
-614
-832
-478
-196
-213
-279
-153
-140
-331
-83
-70
-393
-243
-81
-130
-128
-24
-95
-219
-8
96
-226
-248
115
22
-184
27
-96
-143
191
117
-90
-14
190
120
76
259
244
95
191
197
-41
209
546
348
312
522
433
374
540
502
423
631
788
604
519
841
691
287
592
721
292
220
420
162
-38
212
-91
-438
-9
77
-199
-60
-77
-414
-267
-52
-167
-159
-20
-96
-358
-195
48
-226
-268
88
-32
-255
7
-47
-364
-144
100
-177
-383
-84
-63
-242
-73
-26
-173
-186
-264
-338
-147
-71
-184
-290
-144
-2
-374
-438
-89
-221
-290
-44
-60
-241
-211
-145
-344
-323
-136
-199
-305
-24
41
-208
73
76
-59
202
174
67
-20
-2
15
-265
-174
-125
-388
-332
-129
-218
-509
-443
-285
-300
-161
-117
-278
-320
-227
-410
-675
-556
-114
924
2193
3050
2732
832
-656
-674
-402
-220
-77
-237
-340
-200
-228
-203
-55
-173
-220
-38
-181
-357
-129
-37
-205
-116
101
-78
-161
31
-119
-178
49
107
25
-24
153
35
-127
194
127
-4
238
227
121
194
189
115
210
469
446
305
535
627
395
397
588
608
546
632
644
513
690
769
597
594
674
487
239
364
241
14
104
43
-90
-53
-73
-168
-261
-301
-164
-122
-70
-10
-221
-255
-60
-183
-196
62
-89
-215
-109
-215
-170
17
38
-139
-152
8
-119
-313
-149
-20
-197
-158
-37
-212
-217
-65
-216
-307
-74
21
-193
-196
-37
-205
-329
-66
-192
-405
-153
-92
-251
-273
-182
-160
-178
-89
-66
-212
-95
38
-205
-170
97
55
34
161
115
-95
35
185
-68
-129
-13
-183
-355
-239
-197
-312
-270
-229
-367
-295
-128
-306
-409
-147
-144
-340
-495
-744
-502
548
1902
2927
3117
1765
-263
-842
-485
-378
-262
-188
-216
-163
-100
-146
-276
-324
-176
-69
-129
-142
-73
-126
-240
-152
-10
-128
-135
81
-49
-91
50
-57
-60
40
-88
-155
133
188
-57
108
334
179
120
264
204
77
215
383
387
413
507
399
165
370
641
506
672
784
617
634
584
616
698
703
591
408
497
415
-27
-123
119
13
-128
74
-39
-228
-139
-246
-376
-198
-24
-125
-102
-117
-281
-175
-189
-222
-104
-83
-59
-318
-404
21
-33
-184
-40
-115
-255
-156
-91
-347
-339
-104
-204
-244
-37
-226
-340
-208
-273
-274
-225
-66
-106
-332
-290
-217
-319
-349
-264
-204
-183
-155
-282
-466
-298
-92
-212
-308
-260
-240
-169
-31
-89
-195
-2
128
14
130
172
-123
-84
132
-114
-220
-142
-300
-314
-274
-251
-315
-362
-245
-299
-434
-272
-241
-507
-366
-159
-346
-510
-603
-314
708
2043
3142
3041
1245
-546
-854
-529
-266
-193
-234
-121
-280
-466
-206
-82
-198
-143
-92
-125
-244
-214
-69
-191
-128
-1
-93
-201
-150
-64
-121
2
10
-100
15
89
74
70
34
27
117
129
81
130
261
326
192
240
441
374
272
381
486
419
497
663
485
445
625
482
653
943
806
716
668
618
463
323
310
150
18
75
59
-148
-141
-57
-359
-391
-80
-71
-157
-167
-232
-276
-90
-1
-204
-159
-85
-288
-294
-70
-77
-209
-287
-230
-91
-187
-77
-36
-193
-89
-79
-238
-245
-143
-235
-255
-115
-184
-327
-256
-156
-308
-225
-125
-384
-335
-117
-261
-345
-45
-74
-404
-351
-202
-271
-303
-174
-160
-291
-116
-85
-380
-225
-25
-167
-123
47
44
54
176
182
78
-15
35
16
-216
-224
-217
-309
-175
-212
-504
-441
-215
-252
-349
-200
-196
-370
-260
-240
-412
-454
-511
-531
279
1776
2914
3135
1952
-66
-989
-557
-230
-296
-257
-119
-195
-370
-287
-216
-341
-308
-165
-111
-73
-38
-125
-193
-1
-59
-245
-19
94
-138
-177
24
6
-42
83
73
-17
-61
-28
114
142
61
179
239
220
239
100
318
557
352
295
412
388
439
570
465
439
515
642
707
706
833
782
602
557
539
427
476
437
186
164
208
11
-131
-79
-77
-157
-154
-78
-290
-386
-132
-174
-261
-79
-89
-253
-89
22
-223
-262
-119
-157
-173
-61
-139
-228
-89
-141
-257
-130
-92
-225
-190
-105
-160
-258
-162
-21
-176
-181
-35
-260
-412
-55
-108
-467
-243
-122
-275
-271
-171
-205
-272
-144
-251
-379
-184
-200
-337
-180
-106
-283
-271
-67
-73
-193
-120
60
32
-27
102
52
-18
123
124
-85
-187
-274
-433
-316
-213
-347
-402
-311
-258
-347
-278
-175
-407
-370
-116
-281
-442
-403
-593
-335
995
2347
3096
2849
1101
-652
-938
-491
-344
-277
-126
-306
-410
-190
-13
-151
-271
-15
-149
-421
-151
15
-148
-161
-10
-125
-198
-61
-27
-137
-129
29
-204
-212
193
87
-56
125
65
-77
97
201
-15
-1
221
193
170
383
323
183
374
281
278
447
541
496
374
619
685
581
518
571
668
581
627
504
334
356
169
103
219
107
-66
-195
-127
-30
-109
-187
-282
-289
-210
-86
-201
-380
-224
-187
-232
-138
-93
-240
-361
-193
-247
-252
12
-110
-241
-69
-155
-266
-48
-84
-333
-270
-191
-394
-384
-67
-161
-415
-208
-104
-280
-250
-148
-314
-406
-178
-225
-379
-133
-188
-404
-376
-328
-171
-214
-220
-185
-322
-303
-278
-305
-199
-94
-87
-58
14
81
57
1
0
-180
-164
51
-206
-366
-207
-347
-522
-376
-274
-358
-268
-178
-441
-492
-202
-335
-572
-327
-274
-635
-623
95
1138
2135
3005
2308
156
-783
-571
-607
-503
-129
-170
-304
-188
-260
-447
-425
-294
-266
-239
-50
-104
-281
-200
-70
-129
-125
-91
-206
-195
-108
-142
-215
-14
-59
-266
98
163
-197
-141
150
154
70
169
185
20
170
405
173
143
348
138
60
445
573
441
533
632
433
438
693
592
508
704
676
460
471
426
110
102
211
32
-60
-89
-165
-216
-219
-91
-194
-185
-31
-328
-299
1
-205
-277
-54
-186
-320
-132
-12
-154
-269
-105
-135
-258
-105
-7
-206
-237
-68
-249
-237
-9
-105
-226
-188
-203
-258
-173
-132
-213
-212
-31
-172
-365
-145
-92
-268
-312
-202
-265
-215
-78
-180
-336
-306
-108
-257
-346
-56
-167
-235
58
-19
-147
73
177
-88
-22
229
40
-74
-50
-141
-362
-318
-215
-462
-289
-185
-394
-301
-186
-196
-410
-364
-167
-379
-336
-134
-469
-668
-53
1028
2065
2845
2373
394
-776
-699
-679
-376
-126
-252
-225
-158
-149
-207
-225
-131
-160
-218
-23
-34
-380
-222
25
-245
-176
78
-157
-311
54
157
-132
-3
163
-12
-70
41
110
-5
-34
11
-21
204
326
86
128
367
236
154
287
344
346
499
500
278
406
526
472
584
721
579
477
595
543
392
349
396
328
157
145
104
-95
-130
-41
-102
-87
-1
-141
-272
-198
-223
-208
-71
-186
-256
-135
-62
-212
-263
-112
-314
-314
-4
41
-216
-317
-12
-74
-231
-23
-112
-343
-238
-173
-221
-42
121
-147
-278
-51
-100
-265
-223
-163
-298
-269
-103
-157
-348
-318
-191
-321
-93
46
-237
-177
-51
-202
-315
-251
-230
-193
2
55
-88
-68
98
64
21
124
120
-89
-220
-186
-263
-170
-68
-242
-327
-207
-239
-339
-233
-307
-444
-328
-184
-270
-253
-149
-487
-846
-130
1247
2103
2887
2710
578
-858
-575
-339
-361
-113
-19
-208
-269
-226
-120
-109
-103
-176
-322
-172
-104
-212
-103
-46
-147
-203
-21
25
-151
-73
-59
-96
-2
48
44
54
99
93
34
41
7
73
100
125
277
258
350
353
249
380
416
293
435
624
501
508
688
600
408
557
761
623
651
813
554
396
542
340
203
295
112
-37
3
51
-119
-232
33
-39
-320
-70
116
-218
-255
20
-254
-318
-14
-115
-231
-63
43
-229
-216
-3
-237
-218
20
-51
-133
-95
-98
-202
-164
-32
-141
-185
-81
-167
-257
-189
-126
-170
-115
-148
-402
-287
5
-48
-206
-219
-217
-241
-122
16
-196
-320
-45
-54
-358
-333
-112
-200
-174
29
-33
-54
15
-74
-51
260
270
57
138
154
-43
-252
-270
-190
-285
-204
-107
-260
-235
-171
-438
-435
-165
-290
-328
-69
-78
-342
-485
-501
-201
978
2407
3154
2592
786
-612
-772
-530
-439
-149
55
10
-51
-260
-257
-106
-253
-172
-18
-148
-63
76
-64
-222
-78
-14
-95
27
115
-63
-148
1
-51
-50
160
145
-6
70
236
-100
-109
351
199
156
400
264
57
136
434
447
388
618
515
284
648
760
371
600
772
651
632
490
654
686
582
600
468
441
420
220
146
128
-119
-296
-70
-3
-254
-104
-9
-307
-332
-120
-91
-168
-112
-89
-285
-279
-41
-34
-92
-15
-158
-309
-92
-49
-234
-106
26
-184
-212
4
-55
-294
-165
-58
-217
-177
-30
-176
-332
-165
-153
-270
-236
-109
-193
-148
32
-200
-240
-43
-144
-295
-157
-103
-373
-278
-56
-241
-308
-221
-91
-131
-89
55
-153
-16
277
118
15
215
165
-70
31
57
-266
-240
-79
-218
-293
-298
-270
-326
-302
-174
-265
-318
-148
-256
-423
-197
-221
-599
-513
357
1363
2339
3157
2317
255
-645
-487
-279
-54
-97
-243
-225
-145
-224
-205
5
-50
-239
-235
-179
-238
-91
137
-18
-180
-15
-164
-231
102
87
-46
86
169
-7
-73
30
-22
-5
238
226
5
127
327
152
89
295
251
255
506
490
387
522
562
419
412
655
655
530
616
572
582
743
823
622
502
678
549
207
247
315
62
20
67
-98
-192
-175
-180
-167
-59
-69
-227
-272
-178
-146
-200
-107
-88
-221
-79
-73
-286
-146
-34
-166
-240
-99
-109
-162
-67
-244
-231
10
-61
-172
-109
-6
-155
-317
-128
-123
-265
-162
-106
-290
-243
-12
-289
-493
-82
50
-314
-288
-73
-218
-237
-19
-101
-305
-294
-247
-203
-113
95
-51
-433
-126
148
46
254
249
21
60
82
-138
-205
-93
-240
-300
-223
-322
-365
-261
-166
-300
-355
-265
-481
-443
-139
-165
-316
-364
-532
-452
819
2300
3055
2832
1157
-547
-888
-395
-201
-391
-195
41
-227
-306
-50
-144
-307
-153
-47
-165
-207
-35
-118
-231
-14
-11
-209
-116
68
-178
-375
46
132
-49
120
106
-33
125
222
-9
49
214
87
69
212
298
94
230
433
92
298
635
479
431
577
652
512
564
794
628
525
793
695
571
682
554
384
401
334
137
209
77
-200
-77
-20
-165
-216
-103
-49
-179
-246
-118
-142
-260
-133
-144
-285
-124
-22
-176
-208
-121
-213
-230
-21
-112
-258
-138
-85
-127
-151
-152
-220
-243
-131
-129
-230
-191
-46
-198
-288
-110
-119
-281
-369
-242
-184
-169
-67
-203
-317
-150
-190
-294
-176
-181
-269
-242
-188
-281
-287
-184
-232
-282
-105
23
-161
-23
158
-7
80
275
143
-151
-67
38
-304
-377
-171
-394
-443
-170
-321
-370
-208
-280
-409
-392
-246
-337
-393
-210
-346
-705
-623
69
1102
2425
3420
2586
320
-761
-612
-549
-225
-77
-320
-293
-179
-283
-257
-201
-277
-181
-26
-67
-245
-148
-38
-256
-281
-35
-126
-269
25
29
-138
14
-29
-136
-41
-21
-7
40
149
188
6
93
136
50
184
250
240
121
208
450
391
441
591
428
382
590
547
506
790
786
499
623
723
582
638
687
486
219
223
247
72
34
40
-118
-176
-177
-336
-312
-156
-94
-196
-263
-142
-201
-125
16
-189
-264
-112
-58
-131
-218
-169
-196
-279
-50
-96
-379
-155
-29
-305
-305
-49
-138
-277
-154
-184
-222
-176
-212
-214
-200
-183
-253
-227
-83
-256
-343
-81
-209
-469
-240
-87
-231
-218
-180
-356
-351
-54
-127
-408
-306
-147
-159
-136
33
-37
-118
80
132
48
83
113
-25
-13
8
-239
-351
-214
-281
-423
-301
-224
-340
-334
-184
-306
-404
-236
-291
-351
-310
-386
-547
-611
136
1434
2440
3200
2658
435
-816
-504
-431
-417
-148
-239
-294
-113
-208
-424
-260
-78
-267
-190
23
-206
-257
-81
-107
-226
-219
-23
-141
-200
90
-21
-167
27
46
-46
46
52
-59
-35
93
142
119
253
221
76
273
395
109
95
406
357
341
582
528
440
661
720
485
549
805
733
721
838
690
551
650
479
194
257
291
52
-42
77
-175
-242
10
-80
-292
-264
-7
-123
-306
-150
-146
-317
-187
-58
-233
-96
4
-147
-156
-17
-117
-287
-80
-43
-259
-275
-63
-135
-267
-25
-165
-394
-119
-74
-240
-205
-110
-224
-355
-99
-127
-349
-173
-95
-342
-345
-30
-286
-565
-206
-130
-261
-117
-35
-278
-338
-76
-139
-301
-105
6
-98
26
2
-115
96
237
79
-10
106
65
-173
-211
-158
-270
-327
-303
-297
-350
-238
-189
-365
-269
-237
-353
-210
-215
-422
-520
-519
-354
351
1737
2934
3199
1994
53
-920
-721
-172
-179
-348
-100
-40
-265
-239
-106
-194
-206
-39
-76
-268
-196
-140
-226
-37
68
-147
-189
-110
-191
-97
115
-71
-171
64
104
19
88
152
65
77
158
183
182
35
151
343
128
282
430
228
447
604
386
482
606
432
534
823
757
571
745
825
601
641
696
436
245
295
280
59
28
61
-184
-225
5
-55
-189
-82
-135
-350
-240
-110
-280
-260
-114
-207
-259
-56
-46
-331
-263
-91
-169
-110
-117
-234
-174
-82
-130
-313
-235
19
-258
-443
-242
-187
-182
-135
-119
-233
-226
-220
-325
-218
-121
-270
-365
-194
-186
-425
-261
-51
-275
-332
-136
-259
-414
-161
-87
-284
-256
-132
-260
-274
-15
-46
-8
173
113
-68
-19
172
-29
-84
7
-308
-467
-243
-241
-377
-279
-353
-496
-413
-232
-226
-350
-221
-250
-412
-304
-438
-729
-468
533
1741
2872
3397
1827
-346
-749
-483
-523
-323
-75
-315
-371
-55
-170
-365
-238
-112
-267
-350
-151
-140
-137
-7
-212
-359
-82
-19
-190
-114
-74
-208
-119
18
-73
-104
114
163
34
69
99
65
117
174
67
55
285
344
161
202
428
327
221
505
607
364
484
717
570
662
850
680
520
643
673
586
587
461
202
80
186
81
-101
-4
-167
-403
-246
-175
-320
-205
-25
-187
-245
-124
-180
-274
-295
-221
-175
-204
-189
-230
-194
-185
-301
-263
-119
-44
-224
-310
-201
-250
-200
-16
-92
-293
-217
-154
-291
-320
-167
-250
-366
-186
-239
-306
-225
-235
-307
-374
-297
-287
-269
-130
-236
-343
-162
-308
-548
-283
-86
-242
-238
-92
-120
-238
-74
106
-15
20
124
-33
-68
36
-196
-364
-197
-232
-405
-307
-359
-499
-403
-351
-350
-467
-498
-447
-493
-273
-247
-557
-658
-435
343
1500
2674
3232
1940
-132
-849
-642
-438
-229
-333
-479
-184
-149
-401
-343
-174
-224
-326
-220
-165
-362
-198
17
-268
-136
26
-282
-275
-67
-93
-152
-12
-9
-104
-51
-114
-154
31
176
59
-47
93
34
-38
245
346
206
256
415
246
142
476
557
347
487
672
532
550
637
527
517
659
723
541
474
571
377
191
234
84
-51
-17
-33
-81
-122
-53
-143
-247
-117
-228
-282
-131
-296
-367
-95
-141
-417
-180
36
-316
-354
-56
-49
-174
-154
-64
-143
-292
-209
-164
-273
-150
-64
-238
-244
-113
-274
-410
-170
-70
-235
-150
-73
-278
-259
-64
-240
-437
-177
-161
-390
-129
-93
-539
-457
-98
-231
-434
-259
-98
-146
-126
22
35
62
199
66
-53
139
119
-146
-214
-260
-444
-337
-177
-378
-377
-240
-364
-492
-368
-294
-447
-302
-100
-364
-465
-327
-546
-462
590
1685
2486
3007
1731
-352
-842
-566
-496
-319
-253
-241
-174
-142
-164
-332
-224
-127
-332
-262
-59
-120
-309
-202
24
-64
-243
-178
-107
-147
-10
14
-168
-137
63
-78
-149
128
119
-10
95
134
78
128
148
136
195
347
321
202
360
401
198
306
616
523
362
627
617
427
669
731
575
613
571
347
360
457
219
14
100
120
-169
-107
20
-275
-193
-46
-235
-314
-187
-104
-212
-208
-157
-327
-336
-145
-118
-247
-226
-96
-160
-194
-145
-182
-135
-120
-273
-162
-37
-201
-238
-188
-136
-138
-182
-180
-314
-307
-149
-183
-208
-120
-194
-312
-199
-154
-262
-336
-221
-160
-291
-151
-120
-308
-212
-124
-259
-327
-118
-53
-209
-92
53
24
73
162
-14
-118
120
6
-229
-208
-325
-411
-235
-163
-353
-425
-355
-276
-273
-244
-272
-384
-387
-350
-378
-479
-479
-219
668
1881
2806
2845
1267
-421
-767
-568
-245
-66
-240
-382
-248
-177
-304
-192
-139
-255
-134
-49
-225
-230
-84
-167
-202
-21
-53
-244
-86
27
-201
-91
101
-90
-42
124
-63
-172
106
150
-179
1
310
53
76
350
183
112
285
398
387
426
539
461
476
633
616
497
673
808
570
561
709
665
611
544
450
318
251
279
19
-69
121
-50
-134
23
-101
-204
-140
-142
-242
-265
-154
-298
-358
-68
-12
-220
-172
-114
-248
-156
-40
-177
-210
-39
-137
-296
-40
-38
-495
-317
45
-208
-265
-90
-152
-235
-134
-153
-312
-225
-139
-272
-235
-57
-177
-313
-204
-175
-219
-299
-273
-186
-228
-219
-262
-199
-212
-385
-247
-139
-131
-67
-24
1
-41
-19
104
61
-16
161
142
-34
-132
-276
-362
-340
-163
-166
-368
-272
-207
-430
-432
-246
-303
-315
-216
-291
-294
-307
-487
-702
0
1517
2468
3075
2665
683
-745
-653
-298
-306
-212
-115
-253
-241
-99
-166
-306
-200
-115
-189
-266
-161
-41
-60
75
10
-176
-39
-76
-184
-33
31
26
-90
-65
83
-159
-100
193
24
27
264
183
70
290
368
134
164
374
389
347
448
445
377
611
723
463
457
734
692
663
763
604
606
818
714
391
409
492
221
172
282
58
-179
-49
4
-202
-67
61
-290
-358
-56
-135
-215
-68
-208
-329
-140
-36
-169
-221
-129
-199
-235
-93
-45
-130
-159
-40
-149
-314
20
-10
-308
-58
-38
-266
-216
-182
-232
-213
-188
-256
-260
-139
-202
-292
-148
-57
-229
-309
-192
-347
-325
62
-16
-328
-197
-56
-219
-288
-218
-200
-161
-6
-78
-228
7
128
40
136
255
161
-10
118
91
-259
-182
-49
-413
-342
-103
-427
-362
-106
-170
-284
-275
-184
-344
-317
-134
-307
-478
-552
-325
614
1811
3097
3344
1636
-171
-772
-554
-209
-173
-138
-24
-96
-238
-228
-54
-128
-260
-106
-105
-240
-138
-64
-172
-14
162
-94
-208
-70
-58
-38
40
58
-45
45
276
94
-10
179
106
-25
152
322
109
90
310
210
197
444
439
408
631
541
391
601
678
594
629
783
796
640
678
717
608
687
751
507
394
497
349
102
164
153
-154
-147
23
-230
-299
50
-25
-274
-116
-5
-148
-224
-94
-163
-299
-25
-31
-281
-84
-71
-350
-116
19
-241
-98
120
-141
-382
-129
60
-137
-180
-35
-110
-176
-166
-317
-207
-39
-138
-258
-179
-122
-290
-323
-125
-85
-258
-199
-176
-310
-114
-21
-301
-220
-55
-248
-308
-182
-235
-287
1
75
-129
-60
129
125
-15
123
221
-5
73
173
-90
-140
-22
-144
-361
-299
-218
-461
-358
15
-116
-361
-236
-190
-325
-145
-63
-336
-411
-432
-597
-13
1522
2772
3223
2267
247
-821
-614
-187
-156
-207
-15
-84
-311
-135
-23
-274
-232
-16
-153
-294
-106
-11
-206
-111
48
-276
-202
106
-42
-1
77
7
-63
-104
152
117
29
251
94
58
254
163
119
341
335
125
169
274
349
401
540
574
412
601
719
535
647
789
685
616
608
768
798
802
751
352
429
572
215
128
213
76
-74
-26
-13
-228
-209
6
-153
-238
-32
-213
-297
-121
-104
-156
-246
-144
-113
-122
-72
-210
-221
-4
-30
-252
-177
-72
-240
-248
-45
-179
-282
-15
-32
-234
-262
-283
-233
-131
-77
-166
-327
-280
-138
-287
-282
-71
-303
-314
21
-132
-263
-138
-295
-391
-179
-88
-155
-180
-156
-206
-261
-118
-78
-248
-136
132
34
-12
169
107
-43
63
171
16
-112
-139
-288
-306
-200
-296
-346
-228
-276
-379
-271
-155
-331
-387
-103
-327
-568
-291
-414
-650
143
1622
2628
3262
2534
194
-923
-403
-170
-339
-188
-45
-202
-281
-131
-150
-350
-197
-57
-201
-115
0
-185
-216
-65
-67
-160
-97
-60
-223
-63
39
-111
-10
118
49
-44
110
218
19
16
221
116
35
230
142
76
340
406
286
398
520
340
381
664
549
328
668
769
513
786
1028
740
625
817
543
315
570
490
156
263
282
-75
-43
101
-26
-227
-234
-120
-226
-162
-40
-177
-145
-1
-252
-435
-89
-35
-353
-149
116
-182
-245
-45
-111
-163
-114
-109
-163
-85
-14
-192
-216
-65
-173
-276
-81
-193
-353
-45
-66
-428
-449
-120
-96
-260
-78
-98
-277
-190
-175
-304
-237
-104
-196
-237
-158
-226
-280
-195
-120
-300
-333
-59
-17
-118
-44
48
11
159
280
43
5
207
101
-98
-153
-233
-321
-260
-226
-352
-291
-246
-322
-259
-230
-234
-347
-309
-196
-274
-230
-364
-673
-410
815
2033
2897
3298
1730
-430
-887
-445
-298
-293
-43
-80
-267
-244
-159
-171
-257
-34
-34
-209
-68
-23
-207
-141
21
-162
-170
69
-121
-351
-6
162
-83
-51
48
-128
-39
265
167
-3
204
279
113
189
286
158
249
415
200
195
394
424
468
566
646
572
552
707
669
622
811
807
644
616
645
592
513
466
332
173
146
115
-57
-10
27
-234
-240
-94
-163
-195
-57
-106
-268
-194
-134
-251
-174
-16
-247
-341
-46
-123
-420
-132
32
-229
-112
-44
-246
-239
-45
-76
-248
-102
-39
-236
-170
-65
-298
-346
-136
-238
-502
-289
-27
-232
-180
-15
-200
-264
-123
-170
-241
-133
-113
-242
-264
-200
-325
-322
-124
-91
-145
-132
-32
6
92
252
106
-167
37
128
-137
-165
-202
-322
-286
-142
-283
-421
-189
-267
-569
-482
-286
-339
-256
-121
-280
-342
-367
-585
-552
486
1836
2651
3069
1918
-443
-1114
-463
-420
-304
-37
-84
-302
-302
-126
-311
-297
-15
-75
-217
-151
-82
-189
-271
-140
-130
-139
-57
-313
-272
127
93
-103
-101
112
72
-72
129
139
-33
98
205
32
122
251
69
110
254
223
86
250
542
466
555
659
509
494
575
619
597
712
755
629
629
510
395
367
393
374
173
137
147
-164
-330
-9
-23
-148
-1
-282
-345
-54
-172
-351
-135
55
-168
-259
-128
-234
-349
-205
-51
-160
-174
-48
-252
-307
-63
-58
-143
-79
-80
-250
-294
-210
-295
-271
-64
-157
-330
-182
-229
-370
-204
-145
-247
-276
-136
-110
-308
-333
-265
-338
-316
-170
-274
-292
-88
-57
-62
-52
-10
-97
-41
50
-77
-24
133
-159
-530
-263
-136
-337
-304
-166
-383
-486
-254
-290
-340
-166
-198
-332
-274
-396
-504
-504
-487
-10
937
2099
2983
2442
488
-810
-823
-524
-188
-115
-246
-181
-370
-513
-177
-9
-152
-192
-28
-84
-296
-121
-114
-341
-70
40
-167
-102
23
-33
-121
-170
-241
-209
64
221
67
2
97
113
-71
-113
145
146
164
309
148
225
431
316
317
430
402
379
306
347
578
596
666
708
586
608
577
473
461
524
410
263
329
124
-155
112
65
-267
-111
-38
-150
-290
-404
-279
-71
-58
-163
-207
-139
-44
-211
-257
-85
-200
-320
-157
-75
-225
-151
-211
-504
-286
7
-55
-170
-11
-4
-391
-350
-76
-210
-278
-53
-90
-245
-127
-141
-302
-255
-206
-286
-245
-126
-215
-425
-399
-263
-333
-237
-6
-53
-92
29
-34
-93
20
17
-68
-3
148
-2
-150
-59
-276
-546
-314
-212
-427
-337
-213
-382
-518
-458
-327
-326
-250
-198
-351
-329
-494
-870
-469
766
1857
2650
2987
1512
-559
-965
-566
-378
-236
-81
-174
-295
-148
-259
-416
-310
-209
-225
-202
-43
-114
-182
-212
-409
-347
-78
22
-106
-137
29
-72
-308
-123
63
-85
-27
151
32
-100
155
92
-335
21
398
206
264
388
251
295
412
240
291
584
583
422
452
633
632
569
758
778
604
701
728
421
269
347
213
120
214
92
-47
-27
-170
-317
-154
-61
-136
-107
-72
-161
-282
-246
-160
-199
-202
-20
-138
-305
-51
-279
-396
-30
-135
-208
-55
-75
-198
-187
-91
-163
-216
-24
-57
-395
-200
-35
-330
-279
-67
-200
-283
-68
-129
-370
-286
-84
-198
-230
-51
-261
-399
-161
-241
-346
-146
-101
-165
-146
-47
-206
-348
94
268
43
16
127
112
2
68
-89
-301
-202
-253
-361
-359
-310
-299
-300
-173
-348
-528
-296
-266
-348
-155
-118
-433
-735
-527
397
1587
2703
3251
2075
44
-798
-593
-369
-184
-77
-271
-291
-194
-277
-217
-159
-188
-170
-93
-98
-178
-64
-88
-282
-260
-198
-240
-4
194
-56
-184
22
88
-85
13
146
6
-15
114
56
-44
83
165
72
164
346
201
195
379
278
322
571
562
427
539
661
345
407
862
739
555
810
789
456
501
542
402
340
338
255
48
-31
-62
-178
-117
-8
-214
-240
-15
-177
-302
-109
-116
-302
-339
-139
-176
-233
-22
-143
-235
-24
-32
-144
-106
-48
-171
-221
-58
-110
-274
-129
-94
-414
-300
-10
-181
-185
0
-154
-351
-164
-78
-280
-173
-104
-264
-293
-117
-152
-411
-141
-124
-406
-144
-101
-330
-154
1
-141
-138
44
25
-79
76
156
-4
-38
167
113
-115
-75
-152
-333
-296
-271
-297
-380
-355
-191
-259
-277
-306
-299
-168
-358
-383
-166
-236
-532
-724
-25
1407
2476
3268
2748
508
-793
-545
-339
-317
-167
-233
-380
-171
-65
-203
-151
-81
-123
-345
-243
-45
-197
-62
18
-132
-68
23
-64
-73
8
-27
-80
25
85
-9
14
29
-124
-45
159
110
71
206
283
204
231
253
148
291
484
429
427
569
610
498
543
671
616
616
743
785
496
473
826
611
500
606
357
192
166
81
40
46
17
-149
-224
-46
-99
-201
-41
-137
-389
-269
-261
-284
-90
15
-218
-440
-124
-14
-214
-97
3
-226
-198
-33
-173
-222
-77
-146
-304
-99
-125
-403
-169
1
-208
-226
-117
-155
-316
-214
-125
-377
-300
-149
-306
-351
-159
-127
-306
-149
-82
-392
-332
-145
-207
-219
-108
-100
-244
-115
-47
-203
63
254
38
-41
109
144
-90
-83
1
-248
-246
-66
-362
-446
-168
-253
-358
-227
-134
-292
-349
-384
-594
-399
-43
-157
-605
-619
48
1083
2383
3459
2857
664
-614
-574
-417
-264
-246
-370
-262
-80
-140
-205
-278
-331
-191
-51
-84
-175
-100
-7
-96
-119
54
3
-152
-201
-196
-24
45
79
29
-56
34
-90
-92
256
233
-66
97
352
213
162
302
323
219
314
430
308
346
521
544
455
515
706
594
568
817
723
670
867
737
437
509
462
174
331
392
83
15
30
-87
-223
-93
10
-213
-195
-190
-290
-131
-79
-261
-338
-165
-96
-289
-270
-49
-134
-204
-88
-152
-212
-65
-103
-311
-149
-71
-305
-243
-79
-164
-222
-177
-198
-297
-207
-130
-315
-196
-90
-263
-277
-207
-278
-401
-141
-25
-440
-426
-135
-235
-270
-121
-218
-326
-115
-54
-297
-243
4
-142
-161
183
244
-17
1
168
-70
-172
2
-236
-499
-225
-162
-474
-273
-92
-346
-320
-197
-331
-282
-260
-519
-405
-132
-198
-547
-740
-137
994
1787
2901
3276
1287
-486
-636
-477
-302
-164
-370
-364
-78
-147
-274
-108
-95
-165
-218
-258
-187
-177
-51
-39
-153
-77
-23
-119
-263
-61
-22
-260
27
140
-51
-140
-103
-41
-32
187
192
110
254
276
4
-16
301
283
297
502
391
261
572
510
173
532
711
538
719
860
731
661
705
591
453
613
614
341
341
351
71
-74
-6
-138
-386
-93
123
-221
-236
-35
-196
-313
-136
-159
-235
-111
-192
-270
-91
-119
-347
-244
-21
-95
-279
-249
-136
-310
-232
-3
-164
-272
-118
-127
-357
-206
-4
-215
-290
-132
-159
-339
-273
-191
-273
-154
-135
-322
-403
-227
-203
-331
-169
-199
-324
-195
-235
-438
-303
-138
-245
-208
-35
-104
-244
-140
-27
-27
75
172
-40
-1
237
-54
-299
-192
-209
-341
-513
-466
-283
-353
-272
-172
-394
-442
-384
-449
-325
-187
-298
-473
-541
-482
219
1454
2725
3394
2152
68
-800
-759
-478
-251
-285
-157
-69
-363
-338
-155
-456
-339
3
-174
-264
-95
-64
-190
-178
-88
-154
-156
-120
-131
-97
-183
-142
-96
-58
147
1
-68
195
11
-151
198
261
59
198
332
177
109
211
285
333
490
490
271
368
544
520
637
849
737
489
589
760
705
585
570
565
397
162
53
92
187
114
-180
-255
-148
-256
-218
-3
-137
-322
-148
-128
-402
-329
-171
-273
-268
-96
-122
-300
-201
-115
-248
-267
-205
-198
-162
-67
-97
-283
-313
-277
-306
-138
-100
-308
-268
-142
-261
-285
-116
-135
-308
-267
-181
-315
-343
-275
-285
-262
-168
-219
-532
-438
-98
-306
-258
-31
-390
-391
24
-14
-234
-110
62
11
26
114
12
-291
-131
77
-266
-350
-160
-385
-554
-357
-327
-378
-251
-241
-436
-332
-332
-675
-521
-185
-359
-534
-528
-268
730
1763
2733
2979
1285
-380
-733
-573
-497
-496
-358
-224
-125
-253
-280
-154
-438
-451
-65
-129
-299
-100
-6
-190
-184
-232
-365
-186
35
35
-182
-114
119
-165
-235
-45
-154
-42
141
154
44
76
160
-100
-87
247
249
226
430
400
271
352
491
423
411
639
488
315
638
639
419
710
875
627
544
558
397
154
205
305
75
45
123
-130
-314
-134
-141
-269
-141
-117
-213
-268
-239
-256
-275
-71
-116
-288
-184
-140
-302
-243
-43
-141
-135
41
-250
-457
-72
-73
-178
-59
-136
-202
-192
-267
-267
-229
-215
-233
-325
-127
-124
-444
-352
-190
-239
-200
-85
-43
-243
-299
-187
-279
-318
-125
-103
-294
-167
7
-294
-271
121
65
58
259
134
-102
-72
-79
-296
-234
-67
-201
-263
-142
-289
-468
-301
-255
-345
-286
-197
-236
-397
-371
-387
-448
-416
-429
231
1417
2304
2786
2089
381
-721
-703
-298
-264
-439
-366
-170
-235
-244
-52
-177
-276
-47
-160
-369
-150
-47
-196
-177
-47
-208
-290
-39
7
-94
-49
88
-75
-352
-95
49
-14
198
186
4
47
144
-4
32
343
292
178
336
385
322
231
320
515
442
576
678
551
706
589
254
568
851
646
644
706
483
314
285
128
-48
37
171
22
-50
81
-143
-342
-219
-160
-198
-172
-41
-212
-410
-152
-134
-333
-110
8
-175
-139
-69
-266
-278
-146
-158
-106
-9
-59
-317
-337
-144
-249
-179
47
-104
-219
-83
-58
-408
-578
-200
-101
-184
-79
-135
-204
-97
-169
-477
-359
-77
-227
-233
-42
-125
-210
-298
-388
-274
-78
76
-3
22
172
7
-231
-70
159
9
-13
-36
-263
-203
-277
-471
-423
-255
-95
-262
-275
-178
-303
-293
-265
-408
-387
-215
-398
-749
-424
917
2143
2867
2844
1190
-423
-529
-286
-307
-195
-140
-331
-303
-92
-211
-292
-72
25
-283
-343
-52
-237
-262
92
-26
-200
-116
-192
-204
-19
85
-27
8
200
33
-40
160
-40
-170
42
172
145
149
304
245
173
142
103
197
311
499
453
455
646
547
313
495
767
618
710
878
766
713
548
519
614
540
418
242
234
236
22
-192
-220
-153
-133
-28
-4
-119
-44
-189
-379
-93
-21
-154
-167
-149
-198
-329
-193
-55
-163
-127
29
-57
-209
-117
-69
-214
-168
-21
-154
-171
-59
-285
-300
-55
-146
-319
-175
-41
-214
-257
-195
-171
-127
-136
-233
-315
-216
-113
-232
-214
-48
-267
-410
-109
-124
-401
-169
-25
-169
-270
-372
-155
30
178
249
107
146
199
83
-36
-80
-261
-347
-171
-206
-347
-300
-318
-410
-423
-297
-200
-330
-397
-302
-350
-266
-219
-558
-625
85
1271
2298
3186
2791
682
-616
-514
-377
-229
-81
-316
-403
-109
-53
-269
-139
6
-239
-285
-89
-146
-186
-24
-39
-143
-39
-75
-276
-131
84
-8
-84
81
-4
-145
18
52
56
137
146
-27
2
271
163
129
337
374
310
297
364
342
329
514
621
545
600
652
570
588
718
726
704
876
746
456
603
527
267
302
350
190
-81
54
-23
-309
-51
-47
-208
-46
-20
-199
-255
-123
-30
-163
-346
-178
-172
-239
-43
-156
-207
-97
-195
-282
-99
73
-158
-171
27
-110
-250
-108
-118
-303
-161
-122
-317
-188
-111
-234
-267
-195
-138
-225
-151
-174
-330
-277
-134
-121
-299
-246
-219
-425
-205
9
-211
-229
-148
-347
-416
-170
-63
-106
26
40
-76
6
122
55
-36
135
68
-313
-196
-76
-378
-368
-282
-355
-301
-145
-259
-563
-432
-262
-358
-297
-158
-229
-471
-788
-746
141
1587
2817
3304
2400
349
-824
-686
-421
-235
-187
-158
-182
-340
-214
-160
-317
-322
-262
-222
-141
23
-2
-213
-137
-58
-171
-209
-117
-43
-203
-80
98
-157
-194
83
109
34
184
115
-87
-1
194
147
104
341
310
177
305
334
262
420
590
455
519
630
423
544
742
578
613
889
922
523
485
789
576
352
410
354
152
105
75
-102
-191
-90
-116
-238
-101
-46
-226
-300
-272
-288
-201
-133
-158
-155
-30
-8
-276
-240
-101
-212
-198
7
-103
-437
-190
-30
-312
-136
-13
-300
-204
7
-307
-404
-92
-152
-346
-211
-75
-291
-294
-103
-203
-305
-195
-94
-364
-429
-206
-315
-299
-184
-291
-415
-234
-72
-240
-177
-78
-166
-113
-41
-89
-94
105
197
32
-39
18
-101
-157
-28
-165
-268
-323
-465
-350
-214
-213
-316
-320
-202
-349
-500
-318
-221
-332
-272
-259
-678
-797
222
1477
2416
3328
2472
176
-708
-558
-561
-279
-82
-284
-303
-164
-242
-362
-155
-132
-313
-129
12
-104
-163
-170
-178
-206
-141
4
-246
-250
123
-40
-107
176
3
-217
32
98
20
68
142
72
-54
132
167
151
348
385
236
216
386
383
403
610
554
376
492
588
518
601
814
756
619
773
618
372
613
589
222
196
253
1
-96
31
-89
-208
-109
-117
-196
-214
-156
-215
-304
-81
-103
-304
-267
-181
-68
-153
-278
-225
-222
-208
-180
-268
-142
-125
-386
-189
-3
-186
-229
-67
-148
-361
-151
-77
-388
-221
14
-285
-365
-158
-225
-393
-246
-154
-357
-292
-109
-193
-296
-192
-254
-501
-209
-103
-383
-222
-125
-248
-222
-90
-142
-180
49
91
-150
-32
169
-60
-14
191
19
-270
-279
-203
-324
-281
-204
-348
-435
-269
-224
-405
-304
-294
-443
-296
-128
-323
-692
-632
-263
542
1733
2789
3000
1688
-55
-840
-621
-225
-172
-255
-223
-128
-277
-292
-75
-207
-307
-207
-239
-246
-36
-37
-240
-138
-36
-118
-78
-72
-167
-60
68
-61
-198
-25
109
41
48
136
86
3
118
213
23
-32
274
278
245
400
254
182
397
423
304
462
668
504
490
711
636
480
593
733
653
596
617
447
216
346
289
-77
59
128
-177
-132
-3
-179
-242
-127
-190
-276
-129
-84
-277
-232
-60
-208
-299
-224
-227
-193
-17
-59
-213
-57
-113
-251
-147
4
-34
-253
-201
-131
-255
-255
-148
-221
-305
-219
-305
-344
-230
-218
-183
-110
-109
-214
-249
-133
-182
-377
-321
-210
-205
-183
-158
-209
-329
-234
-235
-348
-143
-65
-248
-180
116
7
-71
138
-14
-68
71
-55
-292
-303
-154
-291
-450
-266
-296
-524
-289
-224
-541
-428
-196
-313
-434
-278
-310
-592
-564
-181
733
2029
3009
2743
852
-735
-787
-497
-358
-162
-160
-301
-291
-241
-281
-150
-165
-273
-135
-222
-364
-252
-96
-243
-297
-45
-99
-242
-53
55
-204
-144
126
-43
-108
75
0
-118
27
131
-30
-34
179
118
13
208
225
126
390
450
247
310
421
479
559
615
497
464
673
612
513
664
715
604
548
550
457
267
266
238
-42
-41
62
-78
-160
-142
-149
-210
-170
-12
-255
-333
-32
-151
-327
-219
-161
-220
-132
-86
-176
-133
-48
-176
-206
-74
-221
-247
-81
-188
-280
-120
-55
-222
-296
-155
-119
-352
-356
-72
-211
-253
46
-206
-422
-184
-170
-290
-149
-77
-351
-359
-119
-283
-399
-57
-116
-352
-128
-137
-304
-163
30
-77
-134
82
65
-82
29
34
-173
-29
58
-242
-305
-248
-220
-223
-208
-185
-345
-365
-271
-275
-291
-190
-165
-303
-273
-311
-701
-704
21
962
2002
3029
2890
867
-713
-578
-453
-306
10
-150
-232
-59
-171
-358
-207
-191
-276
-117
-8
-128
-184
54
-8
-388
-175
122
-41
-5
91
-133
-140
105
38
-35
113
129
42
45
-5
-52
86
283
290
183
178
178
156
210
464
591
510
622
607
476
660
694
461
627
879
717
695
866
713
438
585
606
236
294
429
145
-36
31
-136
-198
61
65
-100
-175
-55
-111
-266
-140
-130
-98
35
-104
-175
-85
-234
-220
-23
14
-30
-194
-163
-44
-151
-115
-50
-142
-131
-143
-209
-226
-211
-110
-114
-110
-65
-306
-296
-1
-109
-203
-18
-50
-159
-263
-358
-246
-184
-91
-58
-161
-109
-150
-349
-277
-73
-157
-154
58
-77
-208
30
8
-144
155
345
79
2
222
-77
-429
-144
-133
-324
-247
-206
-287
-469
-427
-176
-233
-262
-187
-355
-373
-214
-448
-684
-447
-96
833
2197
3120
2987
1307
-382
-817
-571
-166
-126
-273
-250
-343
-530
-363
-87
-92
-97
6
-68
-241
-88
-81
-307
-149
37
-123
-130
103
-286
-501
33
42
-67
86
100
66
-65
11
174
95
198
261
173
236
94
76
257
323
398
418
552
622
429
512
788
518
320
775
841
684
859
842
608
479
553
479
385
450
348
55
-109
2
-42
-84
49
-46
-285
-288
-155
-231
-115
57
-168
-150
-24
-267
-280
-79
-147
-218
-50
-98
-395
-354
-18
-128
-423
-39
109
-361
-253
29
-243
-188
40
-199
-284
-91
-187
-399
-178
-54
-341
-254
-91
-193
-131
-474
-711
-284
-141
-108
-86
-115
-68
-234
-328
-271
-305
-253
-110
-124
-153
-174
-243
-203
-155
139
265
36
136
180
-86
-76
-64
-359
-344
-172
-268
-344
-283
-390
-525
-469
-278
-238
-335
-161
-287
-629
-366
-233
-671
-482
664
1827
2836
3386
1858
-418
-749
-470
-544
-226
41
-167
-314
-153
-356
-381
-15
-117
-234
-91
-55
-282
-310
-22
-43
-171
-36
30
-183
-94
26
-203
-103
137
69
-59
77
66
-56
113
162
68
61
237
307
115
221
293
183
360
507
434
434
640
573
388
589
716
498
564
921
684
458
864
744
408
616
592
190
124
279
91
-58
69
-40
-239
-91
-31
-278
-292
-111
-205
-256
-157
-345
-316
34
-73
-291
-181
-14
-170
-352
-55
17
-244
-120
-36
-286
-219
-32
-262
-279
-75
-220
-295
-215
-227
-238
-196
-146
-182
-199
-159
-246
-287
-125
-213
-473
-233
-50
-266
-287
-169
-215
-290
-166
-111
-284
-276
-187
-299
-242
-82
-125
-231
-170
6
-38
49
259
5
-108
149
73
-170
-75
-72
-372
-378
-198
-382
-370
-97
-302
-413
-149
-241
-483
-307
-168
-293
-459
-513
-543
-548
261
1428
2483
3398
2522
227
-843
-561
-381
-317
-96
-226
-426
-165
-98
-272
-236
-190
-267
-255
-74
-71
-153
-56
-105
-193
-120
-49
-57
-59
-44
-81
-142
-185
36
92
-15
75
3
10
207
208
47
65
164
114
186
334
283
171
345
439
237
473
666
396
430
616
619
607
746
843
719
675
701
572
460
525
437
213
101
4
-160
-108
-9
-267
-328
-25
-98
-341
-176
-39
-235
-323
-164
-239
-289
-161
-278
-325
-90
-61
-232
-221
-189
-302
-266
-47
-195
-317
-181
-181
-278
-229
-30
-157
-249
-92
-234
-360
-177
-154
-364
-298
-108
-285
-426
-190
-175
-417
-232
-137
-342
-299
-181
-296
-420
-215
-135
-289
-182
-98
-305
-262
-33
-137
-177
13
-61
-137
125
89
-102
80
109
-110
-193
-202
-277
-335
-275
-224
-324
-283
-212
-464
-562
-230
-195
-387
-236
-288
-406
-357
-512
-608
160
1554
2622
3244
2441
248
-1021
-646
-168
-375
-385
-171
-234
-260
-211
-170
-199
-181
-67
-199
-273
-35
-99
-318
-128
-48
-218
-162
-58
-133
-91
-40
-263
-173
144
80
-77
-20
94
41
34
154
72
45
242
250
95
242
396
355
228
199
483
486
549
680
495
620
674
493
610
846
821
654
762
718
313
375
455
145
57
124
-15
-109
75
32
-217
-164
-87
-348
-155
114
-343
-386
-146
-220
-204
-85
-49
-194
-284
-103
-68
-224
-97
-43
-205
-169
-55
-227
-216
-182
-412
-219
3
-92
-145
-121
-120
-236
-333
-136
-73
-292
-255
-104
-293
-364
-86
-177
-298
-111
-144
-298
-187
-113
-333
-342
-141
-296
-349
-54
-108
-254
-76
-14
-72
131
207
-42
-7
197
15
-136
-53
-223
-366
-224
-210
-381
-405
-160
-273
-525
-215
-159
-451
-394
-202
-327
-387
-303
-629
-596
436
1609
2541
3124
2079
-104
-965
-604
-430
-302
-82
-172
-374
-288
-154
-286
-312
-118
-111
-199
-119
-102
-284
-176
20
-194
-220
-28
-69
-145
14
75
-9
-78
-105
-42
42
91
-25
-62
58
212
143
201
324
122
133
377
395
275
394
459
313
417
606
473
462
613
491
620
868
685
644
788
763
546
408
509
337
100
235
219
-34
-19
34
-64
-129
-177
-306
-310
-49
-32
-199
-99
-57
-233
-204
-82
-191
-268
-76
-66
-233
-97
4
-121
-211
-125
-101
-271
-172
-38
-178
-201
-88
-157
-143
-41
-246
-297
-75
-132
-397
-247
-19
-239
-279
-245
-295
-212
-179
-179
-249
-171
-151
-335
-221
-127
-271
-322
-177
-80
-174
-99
35
-109
-17
246
44
-107
148
133
-231
-200
-85
-252
-263
-226
-324
-379
-256
-310
-492
-367
-208
-309
-398
-202
-220
-383
-415
-612
-512
576
1946
2835
3015
1682
-252
-972
-573
-237
-306
-217
-135
-282
-253
-90
-131
-333
-177
-59
-258
-134
-168
-353
-189
90
-3
-189
15
-23
-188
-163
-163
-80
7
29
-32
-56
27
42
-35
82
236
99
108
335
261
65
380
484
252
348
399
417
449
587
684
477
619
783
610
754
923
733
527
605
633
502
474
307
134
171
184
12
-44
57
-76
-230
-126
-143
-264
-101
56
-163
-283
-75
-141
-341
-199
-57
-212
-156
10
-190
-214
-47
-186
-206
22
-9
-245
-128
1
-263
-180
31
-174
-277
-123
-99
-277
-248
-105
-215
-271
-150
-197
-258
-119
-151
-241
-132
-124
-236
-275
-211
-181
-295
-261
-155
-227
-169
-65
-235
-154
122
43
27
186
146
17
69
102
-147
-291
-139
-225
-377
-281
-361
-460
-267
-138
-382
-477
-227
-271
-413
-254
-155
-409
-618
-492
-82
1002
2508
3320
2733
939
-531
-834
-649
-298
-92
-131
-56
-185
-335
-142
-216
-399
-149
21
-183
-181
-20
-137
-311
-167
-38
-149
-76
19
-203
-241
30
-36
-103
167
198
-65
18
111
-75
99
294
161
80
262
335
58
157
449
330
380
565
517
472
625
656
557
568
560
662
805
834
719
697
734
533
399
405
398
193
54
32
-46
-52
-4
-87
-332
-221
-54
-164
-171
-172
-291
-346
-148
-28
-230
-185
-18
-163
-249
-56
-209
-472
-133
4
-178
-98
-37
-146
-155
-218
-332
-271
-119
-75
-196
-179
-110
-304
-325
-117
-237
-269
-71
-110
-264
-325
-225
-294
-309
-107
-177
-293
-196
-187
-432
-353
-89
-173
-180
2
-32
-129
-10
-30
-63
120
172
69
37
119
-14
-263
-300
-350
-366
-227
-119
-294
-336
-116
-453
-647
-256
-159
-287
-200
-148
-388
-661
-680
-352
572
1973
3131
3179
1497
-316
-769
-494
-126
-93
-250
-186
-150
-272
-266
-147
-245
-280
-59
-222
-471
-123
67
-133
-66
50
-128
-178
-30
-119
-213
28
119
-73
-6
78
-156
-32
258
102
12
194
316
-98
-186
364
331
281
558
436
331
569
543
394
579
694
566
599
784
646
494
743
880
766
717
769
538
101
185
402
259
215
147
-73
-70
-52
-299
-254
28
-92
-208
-58
-136
-373
-244
-61
-150
-151
-24
-57
-396
-346
-48
-153
-33
98
-120
-139
-31
-194
-219
11
-21
-201
-139
-33
-222
-284
-68
-153
-335
-85
-202
-541
-262
-87
-125
-130
-39
-62
-360
-267
-95
-259
-216
-104
-177
-188
-253
-305
-317
-164
24
-73
0
-80
-288
8
305
217
88
168
183
-70
-275
-174
-225
-323
-97
-186
-345
-188
-443
-552
-213
-132
-288
-282
-194
-387
-415
-352
-575
-615
270
1706
2686
3186
2451
306
-868
-511
-272
-330
-129
-52
-251
-317
-137
-110
-257
-98
-52
-360
-241
-98
-236
-105
-2
-116
-129
25
45
-81
-109
-35
14
19
42
26
-29
69
172
70
60
218
130
9
272
345
121
259
316
230
474
552
472
524
640
660
521
539
769
713
604
822
823
717
743
648
503
532
439
268
307
175
-92
-50
44
-126
-250
-104
-113
-382
-190
18
-214
-184
-18
-121
-214
-161
-249
-266
-120
-67
-118
-168
-94
-39
-326
-457
-113
-81
-95
23
-158
-213
-45
-214
-367
-184
-181
-296
-225
-68
-182
-395
-196
-342
-513
-66
-120
-337
-175
-117
-238
-416
-430
-249
-205
-165
-140
-353
-287
-61
-229
-339
-147
-82
-37
162
179
-84
-47
170
-25
-154
-96
-289
-533
-342
-209
-380
-327
-241
-326
-537
-456
-315
-423
-222
-140
-340
-385
-498
-794
-630
629
1949
2882
3347
1853
-377
-937
-517
-439
-369
-140
-106
-410
-552
-229
-203
-220
-55
-200
-281
-149
-230
-284
-96
-78
-221
-140
-5
-250
-247
-102
-337
-80
167
48
4
22
23
-110
23
212
95
75
242
58
-64
238
434
337
221
416
440
184
381
618
472
579
806
678
548
696
734
606
746
811
488
478
527
69
-2
204
22
-116
1
-117
-347
-147
-38
-194
-252
-149
-181
-259
-187
-248
-305
-188
-53
-234
-446
-196
-159
-321
-46
-52
-256
-176
-260
-290
-206
-146
-148
-270
-132
-152
-464
-378
-145
-180
-247
-138
-165
-330
-299
-257
-378
-353
-178
-232
-301
-119
-287
-601
-323
-144
-297
-237
-124
-292
-459
-300
-163
-159
-7
65
-43
118
200
-142
-153
133
88
-150
-122
-336
-654
-273
-132
-406
-376
-272
-278
-429
-555
-444
-502
-310
-8
-258
-419
-460
-770
-454
970
2252
3056
2993
1179
-636
-873
-558
-369
-248
-158
-149
-338
-286
-124
-424
-453
-25
-104
-270
-105
-100
-289
-270
21
-72
-225
-9
-34
-198
-188
-120
-110
3
128
-51
-50
129
5
-27
104
123
63
97
343
200
-106
253
463
282
422
505
279
369
624
505
420
645
729
648
692
748
653
615
751
553
273
433
258
-14
143
74
-67
-34
53
-78
-340
-182
-79
-265
-203
-107
-218
-217
-157
-298
-251
-11
-95
-267
-108
-101
-330
-189
13
-91
-136
-54
-135
-291
-254
-177
-239
-141
-31
-184
-186
-102
-337
-398
-34
-9
-236
-245
-62
-187
-536
-252
-91
-316
-208
-106
-222
-315
-214
-157
-246
-115
-83
-189
-101
54
-109
-357
20
249
46
136
126
-105
-222
-216
-368
-379
-132
-330
-380
-139
-331
-530
-297
-187
-362
-302
-212
-468
-600
-408
-535
-430
691
1873
2722
2895
1385
-446
-886
-475
-286
-317
-113
-112
-387
-303
-119
-217
-242
-105
-165
-322
-330
-240
-186
-78
45
-108
-205
-29
-67
-272
-119
29
-93
-28
106
4
-107
-111
-120
44
229
178
65
169
216
-26
94
363
326
305
433
512
463
347
417
457
428
710
672
365
605
875
691
644
719
540
407
444
153
-100
149
192
-56
-36
31
-128
-259
-169
-154
-250
-120
-64
-258
-250
2
-219
-608
-254
43
-135
-132
-114
-210
-181
-75
-117
-211
-108
-56
-256
-270
-114
-258
-258
-7
-111
-258
-49
-112
-404
-265
-159
-218
-180
-101
-240
-407
-185
-251
-328
-74
-94
-277
-263
-128
-234
-302
-136
-69
-127
-27
18
-219
-113
205
98
-51
97
42
-221
-208
-307
-437
-232
-109
-234
-358
-208
-230
-627
-464
-222
-421
-275
-93
-285
-548
-561
-450
230
1605
2688
2989
1984
155
-820
-734
-390
-251
-272
-164
-95
-320
-443
-209
-268
-333
-46
-50
-203
-103
-54
-257
-267
-81
-181
-220
24
20
-139
-112
-80
-218
-143
176
86
4
171
8
-63
137
148
58
166
298
224
172
236
281
235
450
668
518
534
638
382
363
799
778
584
842
906
633
612
707
495
294
374
291
50
54
43
-147
-144
-95
-148
-107
-26
-109
-307
-277
-109
-196
-216
-44
-249
-275
-12
-74
-187
-151
-189
-309
-244
-97
-216
-251
14
-80
-292
-97
-68
-337
-137
62
-222
-290
-132
-223
-361
-183
-69
-221
-250
-152
-324
-351
-91
-147
-269
-214
-142
-205
-211
-160
-312
-284
-76
-70
-240
-156
35
-49
21
161
44
38
117
-9
-85
-167
-234
-298
-275
-56
-316
-562
-235
-191
-437
-249
-142
-402
-342
-234
-333
-400
-434
-533
-629
355
1865
2737
3240
2223
27
-881
-527
-254
-270
-142
-90
-342
-257
-71
-256
-263
-121
-211
-218
-133
-116
-142
-238
-139
-93
-197
3
68
-166
-152
-26
-40
-26
-60
-93
-129
59
212
12
91
201
90
131
214
158
134
364
388
212
361
457
357
405
588
557
515
682
683
603
750
866
668
589
688
601
522
513
362
120
98
171
-44
-286
-16
-16
-260
-27
-79
-268
-181
-133
-238
-208
-61
-282
-405
-139
-64
-250
-199
-49
-245
-229
10
-190
-454
-225
-2
-216
-236
-67
-260
-275
-18
-110
-269
-234
-196
-243
-152
-55
-296
-317
-155
-239
-218
-114
-236
-295
-153
-170
-316
-212
-134
-268
-273
-156
-118
-248
-228
-21
-89
-174
-4
15
-62
153
114
-113
140
236
-36
-256
-288
-242
-269
-205
-201
-297
-262
-245
-410
-442
-175
-193
-400
-231
-182
-405
-421
-529
-674
101
1614
2742
3259
2535
525
-730
-587
-285
-324
-274
-81
-273
-371
-59
-46
-237
-299
-236
-194
-139
32
-50
-222
-74
-5
-100
-110
-83
-227
-234
97
40
-115
62
90
-25
78
125
-53
3
234
185
68
212
231
49
142
434
404
372
559
371
319
653
636
546
730
833
722
735
876
733
601
724
724
547
486
425
17
-95
284
228
-61
47
-152
-404
-76
58
-203
-227
-17
-108
-223
-134
-136
-259
-276
-237
-231
-124
-57
-127
-134
-116
-126
-153
-146
-47
-89
-175
-125
-172
-203
-69
-89
-232
-146
-91
-401
-448
-125
-82
-175
-37
-69
-313
-182
-125
-313
-216
-80
-139
-279
-327
-188
-274
-262
-78
-242
-225
-160
-271
-157
52
89
-15
57
231
93
-29
117
47
-140
-74
-234
-499
-195
-176
-523
-288
-59
-286
-457
-261
-201
-429
-354
-199
-343
-438
-439
-639
-641
299
1633
2658
3354
2385
141
-858
-564
-367
-330
-175
-208
-318
-260
-259
-292
-165
-106
-238
-261
-150
-125
-147
-72
-18
-233
-205
0
-141
-116
35
3
-92
-58
7
-126
-60
132
34
-36
148
212
64
150
263
130
94
184
256
264
384
452
318
454
673
515
441
657
703
596
680
714
582
695
791
602
501
457
258
162
214
119
-90
-92
0
-205
-278
-64
-114
-223
-198
-211
-243
-253
-208
-206
-183
-72
-217
-352
-96
-58
-267
-207
-28
-168
-274
-13
-115
-327
-95
-86
-260
-198
-106
-207
-357
-142
-51
-241
-197
-234
-387
-294
-150
-232
-278
-178
-230
-348
-233
-197
-330
-207
-122
-294
-369
-180
-191
-337
-67
28
-236
-91
155
17
-43
107
96
-111
-112
-10
-192
-212
-128
-390
-430
-238
-314
-287
-178
-355
-439
-293
-200
-252
-373
-340
-285
-506
-665
-516
60
1338
2564
3065
2347
433
-833
-775
-372
-271
-300
-140
-56
-237
-373
-177
-183
-367
-205
-89
-185
-226
-139
-107
-100
-42
-105
-173
-68
-57
-185
-119
34
-103
-178
103
78
-89
86
70
-99
69
178
28
30
230
202
134
416
484
259
371
528
400
446
652
555
430
681
780
537
600
749
577
543
660
503
224
296
376
77
62
186
-35
-110
-7
-119
-229
-121
-87
-226
-158
-69
-331
-308
-72
-240
-262
-82
-87
-200
-180
-52
-191
-203
4
-102
-242
-48
-58
-265
-167
-87
-215
-348
-231
-52
-261
-219
10
-271
-271
-23
-202
-185
-30
-291
-386
-168
-116
-220
-200
-169
-278
-351
-297
-175
-214
-133
-16
-203
-120
84
-102
-67
220
159
7
72
21
-235
-310
-199
-305
-426
-270
-296
-365
-291
-423
-522
-317
-146
-338
-413
-180
-326
-640
-471
-341
69
1360
2552
2987
2083
200
-959
-1016
-424
-49
-265
-241
-109
-295
-247
-159
-382
-408
-110
-74
-322
-223
-127
-340
-355
-111
-77
-136
-80
-135
-219
-179
-48
-93
-85
92
-9
-191
65
179
-92
-51
144
107
15
154
194
66
78
152
270
423
480
463
380
440
619
463
479
739
679
675
785
658
413
442
494
296
343
319
43
-39
-41
-160
-213
-54
-95
-254
-228
-229
-337
-241
-32
-220
-279
-39
-87
-377
-252
-106
-346
-198
-5
-155
-230
-98
-177
-388
-200
-14
-188
-165
-61
-361
-450
-116
-38
-209
-140
-66
-334
-391
-147
-177
-261
-108
-128
-284
-192
-63
-280
-503
-253
-193
-309
-95
-120
-300
-112
-190
-407
-12
235
51
40
170
106
-17
75
78
-293
-408
-243
-344
-375
-204
-228
-398
-249
-521
-840
-243
-9
-246
-254
-179
-281
-570
-643
-266
704
1930
2945
2978
1187
-542
-780
-613
-299
-19
-206
-155
-92
-634
-464
52
-80
-168
-60
-35
-228
-185
36
-266
-437
-89
23
-113
-16
37
-117
-149
-93
-93
-83
132
131
-195
-105
121
83
142
262
221
179
291
244
83
233
420
357
408
613
512
309
510
525
416
654
764
709
819
886
621
429
568
512
316
362
311
103
35
2
-187
-264
-53
-14
-208
-131
-18
-296
-442
-135
-58
-195
-77
-141
-303
-121
-71
-191
-124
-76
-161
-196
-134
-174
-188
-80
-64
-254
-255
-124
-356
-255
-11
-96
-165
-115
-23
-194
-261
-240
-306
-221
-124
-47
-242
-343
-143
-337
-337
-120
-223
-279
-194
-218
-319
-144
-93
-221
-62
51
-37
6
145
120
-31
67
70
-235
-173
1
-244
-483
-236
-183
-395
-301
-303
-310
-205
-190
-310
-433
-215
-155
-343
-325
-453
-691
-340
788
1943
2887
3245
1689
-400
-782
-553
-590
-211
40
-287
-331
-16
-69
-280
-122
-65
-262
-178
12
-80
-199
-61
-88
-226
-71
-145
-262
-26
74
-39
-108
2
35
-97
68
165
-34
62
221
109
36
196
161
53
247
362
313
351
500
468
374
501
534
485
650
776
636
745
815
552
661
804
624
460
545
560
259
228
242
-33
-80
82
-33
-340
-183
-8
-182
-200
-89
-173
-256
-122
-136
-252
-153
-86
-274
-249
-31
-170
-268
-71
-120
-296
-92
-42
-309
-194
-57
-180
-128
-57
-139
-211
-157
-65
-171
-329
-199
-79
-283
-228
-93
-303
-218
-66
-235
-197
-110
-327
-397
-112
-82
-324
-175
9
-254
-257
-57
-151
-89
120
123
96
161
165
44
0
99
-68
-332
-174
-120
-438
-393
-210
-311
-238
-137
-344
-366
-244
-278
-351
-299
-153
-442
-651
-439
-153
858
2299
3226
2998
1316
-366
-733
-332
-154
-233
-173
-58
-136
-272
-167
-43
-202
-296
-80
-74
-208
-112
-34
-83
1
-30
-234
-155
-3
9
-9
44
96
-40
-111
70
74
10
177
122
22
239
244
61
150
323
125
27
405
394
326
627
520
414
647
694
582
597
767
696
565
781
822
666
667
685
501
295
339
282
129
119
53
-114
-68
43
-124
-169
-6
-123
-291
-110
-75
-293
-241
-101
-237
-252
-65
-114
-160
-1
-1
-168
-157
-96
-190
-246
-154
-93
-205
-156
-59
-226
-195
-129
-255
-245
-164
-210
-280
-154
-94
-294
-305
-149
-279
-302
-192
-312
-289
-70
-217
-388
-199
-192
-256
-209
-144
-113
-208
-70
98
-32
29
183
43
23
176
52
-91
-95
-200
-310
-317
-196
-237
-370
-252
-252
-517
-418
-174
-390
-370
-190
-300
-276
-278
-550
-830
-276
882
1923
3135
3215
1165
-605
-643
-455
-572
-277
3
-345
-335
0
-179
-265
-97
-166
-294
-137
-90
-272
-161
-26
-213
-325
-112
14
-252
-228
54
-78
-130
75
-63
-187
139
160
-89
82
157
1
95
140
37
100
244
329
306
340
413
328
395
512
405
383
658
694
466
635
766
593
645
727
537
515
599
383
97
219
228
-217
-139
126
-117
-216
-118
-228
-246
-165
-231
-259
-175
-99
-181
-288
-129
-133
-330
-124
-74
-275
-183
-85
-178
-183
-138
-185
-191
-63
-82
-297
-172
-21
-213
-245
-152
-195
-228
-167
-130
-330
-314
-92
-356
-503
-109
-118
-333
-133
-123
-311
-258
-158
-357
-494
-177
-124
-335
-138
6
-161
-143
-16
-19
-12
124
32
-92
47
-43
-235
-299
-260
-262
-346
-392
-423
-406
-280
-158
-288
-258
-231
-505
-425
-266
-335
-469
-579
-495
28
1283
2516
3024
2348
544
-745
-790
-390
-252
-327
-237
-117
-237
-403
-218
-198
-490
-145
59
-323
-134
76
-221
-193
18
-78
-213
-80
-1
-150
-153
-28
-65
-76
55
33
-119
-122
64
64
55
211
92
-66
117
236
137
281
427
262
316
513
383
353
540
495
440
590
681
587
558
729
640
486
653
566
290
366
335
26
8
19
-143
-139
-34
-81
-224
-123
-72
-226
-276
-207
-143
-179
-159
-175
-269
-240
-147
-230
-222
-18
-131
-303
-145
-51
-165
-88
-41
-235
-228
-112
-221
-184
-28
-135
-228
-145
-188
-399
-237
-28
-269
-311
-113
-145
-282
-267
-258
-375
-323
-76
-210
-392
-123
-136
-223
-64
-44
-142
-90
104
41
-138
-17
97
-80
-72
-48
-305
-371
-244
-274
-371
-195
-160
-397
-319
-220
-395
-412
-214
-330
-527
-298
-263
-524
-503
-127
723
1977
3074
2869
1049
-464
-721
-521
-210
-96
-327
-347
-116
-140
-164
-74
-140
-191
-259
-241
-221
-293
-44
-22
-203
-9
-25
-259
-60
104
-107
-59
88
-70
-166
92
162
-60
67
190
15
7
234
177
33
248
287
212
381
495
286
283
580
499
457
717
672
550
690
727
564
614
805
676
604
713
505
183
158
174
110
135
102
-57
-172
-32
-65
-283
-117
-50
-258
-157
-64
-336
-293
-12
-144
-331
-79
8
-390
-356
7
-22
-178
-119
-61
-124
-173
-181
-185
-219
-115
-143
-247
-36
-138
-467
-280
-43
-212
-403
-280
-215
-315
-87
-31
-312
-307
-272
-275
-213
-223
-238
-251
-146
-135
-357
-348
-132
-170
-165
51
19
-137
-20
50
-66
136
220
-52
-147
-171
-368
-409
-181
-207
-376
-292
-230
-366
-439
-403
-440
-421
-203
-136
-308
-447
-541
-558
267
1835
2889
3198
2224
61
-1070
-569
-239
-349
-159
-44
-225
-303
-115
-302
-662
-325
41
-105
-115
19
-102
-181
-39
-76
-254
-89
38
-201
-116
61
-149
-232
4
-78
-199
64
187
51
-38
117
178
172
238
198
189
353
409
204
266
481
403
413
609
543
379
578
751
623
769
955
763
725
652
431
430
453
429
213
74
208
39
-124
-16
-121
-267
-149
-63
-209
-156
-126
-431
-387
-35
2
-210
-167
-91
-245
-264
-132
-160
-249
-56
-19
-176
-152
-254
-324
-165
-38
-120
-233
-72
-128
-390
-237
-53
-198
-245
-89
-193
-366
-237
-252
-377
-224
-120
-383
-416
-168
-231
-201
-43
-191
-284
-155
-213
-377
-247
-41
-54
-117
7
103
-25
16
159
19
-8
152
-38
-302
-221
-195
-357
-298
-202
-309
-379
-261
-360
-562
-317
-223
-350
-298
-256
-406
-631
-618
-264
871
2309
3179
3043
1366
-451
-781
-395
-212
-235
-320
-233
-207
-281
-164
-189
-301
-170
-167
-214
-169
-109
-54
-191
-233
-59
-124
-149
35
-81
-132
61
25
-112
-44
112
-6
-101
117
108
-12
216
306
20
169
458
155
169
497
382
287
501
579
442
579
700
524
556
746
690
603
770
820
592
614
698
427
347
475
220
17
219
139
-151
-138
-43
-147
-207
-117
-207
-283
-123
-163
-356
-239
-203
-351
-242
-107
-159
-206
-61
-26
-266
-223
-4
-149
-213
-24
-137
-254
-80
-205
-386
-153
-107
-328
-339
-184
-247
-356
-106
-123
-349
-262
-133
-216
-255
-139
-255
-329
-158
-210
-353
-183
-125
-306
-316
-342
-373
-240
-58
-25
-124
-81
22
-3
19
132
67
25
97
-54
-230
-197
-227
-357
-436
-428
-413
-340
-138
-174
-368
-313
-283
-440
-389
-217
-310
-432
-571
-691
-146
1176
2426
3192
2732
675
-719
-733
-468
-280
-285
-165
-195
-339
-263
-209
-241
-256
-140
-183
-329
-144
-62
-228
-194
-36
-128
-425
-236
13
-201
-139
113
-50
-196
10
14
-102
111
107
-114
38
159
62
122
248
212
116
261
314
164
361
498
360
416
556
458
345
634
757
584
633
655
623
655
671
527
359
383
292
45
35
105
-92
-193
-91
-154
-240
-147
-122
-341
-369
-162
-251
-278
-125
-259
-320
-163
-204
-375
-235
-65
-205
-195
-44
-150
-285
-167
-74
-178
-198
-136
-297
-347
-131
-145
-369
-278
-158
-387
-382
-142
-272
-390
-187
-210
-314
-192
-204
-375
-261
-101
-303
-363
-135
-233
-411
-201
-77
-264
-218
-4
-109
-82
123
80
-43
17
65
-159
-222
-129
-308
-364
-216
-317
-469
-316
-187
-393
-391
-264
-441
-453
-246
-333
-452
-360
-530
-658
-34
1159
2217
3040
2745
710
-800
-656
-304
-367
-330
-83
-118
-398
-330
-165
-340
-245
-116
-270
-140
-7
-169
-237
-56
-142
-326
-138
-147
-184
-7
82
-4
-100
85
39
-120
61
59
-42
55
94
64
135
237
153
25
189
424
372
356
494
431
306
460
600
558
641
653
476
644
861
700
583
697
599
378
518
464
121
79
158
27
2
113
-26
-167
-168
-122
-177
-250
-130
-205
-242
-43
-227
-389
-101
-80
-295
-205
-50
-220
-311
-198
-161
-86
-39
-159
-256
-146
-178
-277
-161
-32
-86
-340
-238
-14
-216
-223
-57
-217
-320
-197
-227
-295
-188
-111
-214
-310
-282
-300
-340
-171
-88
-248
-158
-47
-156
-122
-121
-177
2
231
196
7
0
69
-106
-234
-120
-228
-317
-172
-239
-433
-462
-353
-378
-322
-133
-308
-389
-153
-209
-463
-473
-499
-546
259
1669
2547
2951
2206
121
-941
-575
-272
-283
-267
-327
-427
-234
-49
-93
-203
-155
-73
-254
-266
-104
-234
-246
1
-23
-158
-46
-8
-189
-254
-89
-30
-131
56
115
-92
90
185
1
130
231
-3
-14
155
164
191
235
264
325
376
510
484
398
577
593
474
579
701
603
584
853
716
371
700
760
377
468
507
206
99
184
-3
-139
-9
-84
-217
-96
-113
-283
-139
-115
-324
-217
-26
-118
-279
-233
-74
-205
-234
-20
-141
-149
-46
-188
-183
-24
-115
-255
-233
-129
-72
-148
-24
-53
-255
-150
-88
-265
-277
-22
-121
-362
-174
-189
-316
-140
-142
-266
-206
-177
-326
-360
-222
-145
-201
-123
13
-106
-110
29
-46
-8
116
58
23
93
102
-77
-133
-50
-309
-484
-196
-238
-411
-267
-276
-368
-279
-203
-328
-379
-261
-256
-336
-296
-410
-735
-153
1275
2361
3131
2998
1041
-724
-702
-331
-368
-313
-60
-120
-299
-135
-105
-282
-200
-66
-177
-181
-62
-194
-221
-56
-66
-64
-164
-219
-171
-102
84
-10
-109
90
55
-124
63
164
-20
32
222
167
89
206
187
64
206
311
245
257
409
524
471
592
613
426
635
780
665
751
841
759
700
772
690
461
476
470
237
71
47
-2
-101
-63
-56
-178
-129
-121
-196
-151
-209
-314
-215
-74
-166
-346
-202
-38
-199
-251
-92
-138
-381
-369
-137
-150
-223
-100
-184
-182
-110
-261
-220
-114
-198
-274
-176
-133
-322
-281
-94
-232
-332
-122
-94
-299
-200
-119
-309
-295
-148
-251
-387
-272
-172
-351
-402
-201
-153
-165
-91
-63
-24
170
176
-4
72
150
2
-64
-52
-249
-352
-161
-290
-462
-263
-200
-354
-350
-162
-277
-414
-291
-232
-423
-379
-264
-615
-653
27
1172
2357
3361
3030
861
-634
-611
-433
-269
-77
-245
-283
-35
-146
-350
-186
-61
-200
-182
-106
-164
-200
-109
-60
-204
-72
64
-124
-41
48
-154
-109
74
69
6
29
116
57
73
157
57
81
299
306
173
266
337
275
328
433
433
383
570
659
532
619
667
574
708
903
760
646
808
698
433
579
694
413
251
315
201
26
29
-13
-165
-132
-56
-222
-268
-120
-149
-291
-134
-122
-339
-192
-216
-416
-176
-15
-214
-180
-104
-161
-230
-263
-112
-162
-221
-76
-163
-296
-149
-124
-332
-194
-69
-374
-310
-84
-181
-309
-231
-130
-278
-352
-360
-320
-278
-240
-218
-268
-171
-179
-352
-350
-89
-161
-332
-36
-52
-295
-10
135
-38
25
78
-10
-100
11
-123
-431
-229
-123
-358
-396
-229
-297
-381
-215
-344
-503
-302
-254
-394
-311
-255
-477
-679
-635
-88
1085
2498
3386
2691
612
-773
-768
-409
-280
-314
-265
-155
-156
-283
-265
-157
-197
-246
-140
-66
-242
-205
-120
-294
-116
39
-165
-195
-55
-106
-128
15
37
-103
-114
-70
-150
2
197
135
76
166
138
31
187
366
167
48
429
450
225
506
642
365
390
648
567
502
676
674
601
736
806
616
570
648
430
237
308
209
-34
20
35
-183
-127
-90
-324
-374
-142
-192
-391
-85
-55
-372
-325
-150
-160
-264
-159
-127
-271
-236
-151
-208
-175
-54
-243
-261
-26
-110
-273
-152
-70
-243
-195
-88
-244
-301
-196
-206
-276
-184
-123
-259
-232
-70
-254
-371
-179
-279
-435
-271
-200
-263
-168
-244
-362
-139
12
-127
-206
8
134
37
66
85
-33
-54
-20
-248
-499
-262
-110
-335
-323
-267
-383
-378
-240
-432
-486
-210
-188
-275
-251
-176
-499
-731
-472
178
1340
2593
3298
2297
199
-772
-719
-479
-126
-131
-297
-243
-247
-263
-212
-196
-210
-213
-126
-106
-229
-74
-6
-195
-88
57
-94
-138
60
-73
-154
28
-80
-134
34
178
78
-19
132
32
-81
204
261
40
92
311
263
176
398
450
344
439
528
435
476
702
602
525
745
710
591
714
660
501
571
607
378
268
302
107
-51
66
96
-187
-261
-48
-56
-176
-196
-226
-287
-194
-118
-240
-211
-71
-164
-254
-171
-171
-223
-88
-45
-168
-197
-219
-170
-197
-137
-81
-191
-98
-180
-348
-132
16
-159
-194
-82
-174
-270
-167
-84
-205
-225
-107
-209
-308
-146
-271
-551
-164
69
-229
-193
-1
-136
-120
104
77
14
145
242
39
-1
227
-139
-442
-121
-155
-458
-268
-24
-415
-531
-161
-236
-409
-208
-105
-333
-291
-145
-390
-496
-477
-512
207
1552
2391
2864
2360
394
-822
-553
-219
-179
-310
-285
-229
-352
-114
-8
-233
-221
-34
-209
-441
-209
-20
-88
-48
1
-131
-129
27
-86
-357
-209
12
-49
78
182
-14
-27
137
86
-5
0
14
111
254
182
-2
131
439
384
265
534
558
406
614
657
470
511
718
646
616
778
544
522
727
658
481
429
404
34
-17
249
144
-58
-27
52
-158
-194
-103
-463
-459
-132
-149
-186
-94
-40
-151
-184
-111
-250
-276
-74
-136
-202
-199
-311
-306
-183
4
-56
-164
-123
-206
-212
-185
-151
-192
-148
-25
-224
-290
-263
-392
-303
-149
-172
-219
-193
-223
-312
-286
-226
-224
-272
-216
-125
-266
-182
-35
-377
-322
105
104
-2
127
154
-44
-93
-73
-122
-298
-286
-199
-369
-323
-293
-401
-361
-252
-282
-372
-264
-273
-318
-237
-303
-521
-765
-497
548
1647
2752
3359
2058
68
-628
-648
-607
-184
-56
-272
-184
-150
-252
-182
-160
-324
-256
-40
-131
-224
-128
-161
-207
-36
-33
-198
-174
-112
-73
-79
-84
-31
-2
29
38
15
12
89
46
42
192
139
129
215
199
213
294
381
305
324
487
390
408
596
634
627
682
778
512
525
934
784
555
589
525
335
226
243
118
-88
37
116
-201
-272
-111
-296
-271
-14
-205
-359
-155
-126
-291
-280
-243
-233
-142
-87
-219
-295
-103
-186
-391
-189
-24
-239
-298
-117
-195
-297
-169
-115
-217
-203
-185
-308
-237
-87
-233
-309
-211
-253
-296
-212
-131
-224
-271
-190
-230
-299
-137
-127
-490
-369
-113
-282
-249
18
-49
-214
-65
46
17
81
93
6
-27
-61
-81
-239
-278
-191
-359
-275
-147
-498
-593
-254
-235
-368
-227
-199
-417
-295
-106
-504
-732
-586
-335
765
2274
3235
3191
1398
-621
-901
-487
-218
-132
-236
-103
-132
-412
-295
-106
-254
-250
-139
-189
-313
-341
-248
-290
-144
11
-151
-124
-56
-169
-183
-9
17
-129
-19
124
-142
-220
-11
-25
37
226
221
97
198
193
-4
185
426
344
314
456
484
357
412
608
472
394
697
712
540
728
722
479
618
599
359
354
349
158
-73
-88
2
-103
-179
-91
-249
-299
-259
-469
-365
-167
-173
-211
-224
-138
-247
-473
-260
-111
-255
-121
-88
-293
-142
-175
-536
-326
-52
-207
-332
-173
-97
-341
-315
-111
-288
-306
-132
-349
-409
-210
-215
-303
-236
-209
-505
-578
-190
-144
-324
-131
-113
-329
-303
-130
-216
-341
-125
-90
-136
79
107
-161
-134
121
-72
-171
49
-122
-373
-278
-247
-373
-374
-312
-306
-305
-232
-334
-463
-336
-334
-462
-378
-276
-512
-665
-358
779
2178
3141
3039
1038
-611
-658
-566
-527
-216
-115
-305
-198
-125
-253
-315
-370
-224
-166
-111
-183
-315
-101
-150
-242
10
45
-178
-129
13
-175
-251
-35
39
-52
-44
141
11
-57
230
143
-39
94
109
45
216
372
322
298
445
421
198
339
558
516
643
748
657
581
645
611
544
782
855
573
530
533
134
118
341
124
-14
97
24
-156
-101
-146
-341
-266
-67
-95
-209
-112
-80
-381
-447
-112
-115
-160
30
-79
-221
-51
-264
-451
-66
-46
-180
-112
-7
-58
-217
-172
-217
-258
-122
-75
-200
-206
-43
-303
-521
-131
-13
-239
-160
-37
-233
-333
-212
-282
-292
-101
-101
-259
-198
-94
-217
-202
70
196
48
127
219
-137
-164
41
-171
-278
-122
-228
-367
-243
-457
-600
-234
-121
-258
-260
-175
-213
-362
-319
-241
-432
-580
-327
492
1520
2624
3077
1662
-41
-651
-656
-363
-250
-344
-245
-83
-92
-206
-154
-86
-285
-222
-103
-311
-215
37
-23
-174
-168
-286
-323
-13
109
-7
-40
70
10
-81
51
82
-63
-15
205
108
88
206
4
25
283
332
223
291
487
408
269
544
591
304
585
766
649
674
714
694
655
821
777
617
745
622
276
196
169
93
78
172
58
-125
-24
-238
-384
-155
-29
-73
-135
-44
-107
-232
-320
-358
-229
-72
-6
-174
-166
-32
-245
-314
-187
-131
-119
-44
12
-133
-204
-234
-288
-144
21
-22
-162
-182
-7
-221
-521
-178
-31
-196
-116
-75
-341
-475
-89
-158
-407
-41
-32
-263
-143
-176
-310
-153
10
-77
-103
156
155
-51
80
121
-12
2
40
-186
-500
-358
-154
-306
-274
-89
-227
-401
-273
-290
-446
-238
-169
-396
-237
-220
-688
-718
-144
853
2151
3237
3231
1376
-640
-788
-409
-379
-46
-48
-275
-89
-173
-418
-206
-173
-256
-81
-20
-203
-160
-70
-260
-203
35
5
-130
42
95
-216
-240
97
90
-184
43
307
10
-210
40
127
74
251
255
161
208
197
171
327
468
442
441
491
559
528
520
672
637
686
958
635
441
907
834
547
618
560
314
387
402
-107
-154
175
44
-184
-81
-15
-212
-228
-197
-298
-260
-128
-155
-243
-187
-176
-219
-203
-52
-118
-259
-123
-181
-244
-76
-38
-310
-252
-20
-251
-235
-75
-235
-349
-125
-45
-339
-220
-44
-249
-253
-167
-269
-349
-174
-113
-386
-289
-98
-257
-261
-155
-210
-293
-180
-160
-342
-330
-106
-95
-238
-37
123
-2
-53
80
95
92
185
-34
-276
-262
-267
-297
-243
-232
-371
-414
-269
-267
-380
-289
-206
-448
-372
-128
-299
-459
-553
-543
122
1525
2764
3364
2582
447
-809
-658
-293
-279
-247
-115
-263
-280
-141
-178
-366
-252
30
-103
-232
-54
-68
-317
-216
10
-65
-108
-150
-213
-81
30
-24
-90
29
40
-126
8
176
39
-12
128
46
-124
108
320
252
301
395
337
277
402
340
253
583
631
479
686
780
612
588
845
923
737
700
622
451
344
376
302
148
190
96
-162
-156
14
-235
-319
-35
-126
-281
-136
-51
-199
-145
-119
-357
-249
-148
-255
-135
-119
-194
-149
-105
-150
-220
-211
-123
-126
-176
-51
-78
-287
-231
-112
-248
-220
-81
-219
-295
-140
-340
-553
-153
0
-229
-221
-127
-278
-427
-152
-141
-363
-151
-104
-289
-151
-186
-400
-248
-104
-75
-50
81
90
-32
85
150
25
-39
22
-221
-446
-161
-147
-398
-280
-238
-402
-431
-339
-207
-268
-270
-243
-377
-363
-313
-504
-760
-569
266
1439
2666
3458
2462
240
-773
-657
-441
-166
-156
-231
-89
-207
-463
-304
-135
-291
-230
-103
-324
-325
-73
-134
-377
-242
44
-65
-142
0
-74
-98
-112
-186
-119
-50
33
-18
-30
131
125
-145
-129
157
160
214
370
223
224
320
159
254
444
519
499
510
687
603
412
600
768
739
837
801
568
595
518
192
223
331
171
-24
44
-6
-302
-199
-37
-225
-254
-151
-172
-204
-328
-296
-226
-278
-154
-258
-380
-221
-195
-177
-154
-202
-243
-155
-112
-249
-161
-189
-297
-217
-139
-98
-251
-245
-87
-272
-416
-227
-204
-280
-185
-131
-179
-243
-282
-247
-378
-290
-88
-274
-261
-135
-302
-393
-230
-166
-268
-168
-36
-160
-137
-27
-24
113
228
-4
-65
153
49
-269
-442
-378
-275
-256
-222
-299
-334
-195
-383
-617
-332
-201
-367
-272
-147
-253
-445
-587
-638
-171
1208
2514
3093
2604
593
-978
-806
-262
-183
-204
-145
-161
-325
-294
-84
-313
-338
-19
-111
-226
-111
-92
-307
-317
-41
-43
-136
9
83
-88
-81
44
-76
-60
82
-16
-98
-80
-52
77
186
198
111
166
320
238
225
358
380
322
459
568
325
354
571
468
521
754
688
666
797
705
625
609
594
544
422
441
338
-43
-27
250
-22
-132
39
-121
-187
-196
-190
-205
-189
-57
-188
-237
-200
-295
-207
-92
-202
-190
-7
-97
-249
-180
-140
-187
-224
-60
-42
-276
-212
-122
-239
-202
-54
-163
-247
-113
-284
-350
-57
-81
-242
-256
-163
-110
-275
-289
-152
-234
-180
-96
-388
-389
-91
-222
-358
-62
-53
-203
-22
9
-40
-25
79
70
-22
141
96
-217
-233
-215
-421
-338
-223
-327
-314
-172
-234
-568
-510
-162
-273
-327
-175
-304
-435
-516
-652
-240
1016
2235
3035
2822
1125
-648
-949
-327
-196
-296
-126
-29
-223
-316
-179
-207
-325
-181
-100
-209
-26
100
-240
-391
-125
-36
-90
33
105
-11
32
142
-144
-248
119
98
-75
149
197
14
177
101
-190
97
414
303
241
456
475
358
485
539
438
492
652
643
549
755
769
463
651
824
679
761
797
596
452
408
296
107
167
221
-66
-83
123
-94
-242
-59
-178
-271
-67
-31
-202
-211
-94
-172
-212
-37
-115
-387
-164
66
-174
-161
46
-37
-377
-288
-14
-125
4
51
-179
-111
-95
-357
-319
-41
-27
-182
-151
-63
-161
-376
-285
-208
-288
-97
-47
-158
-233
-209
-228
-265
-111
-175
-264
-88
-175
-247
-80
-120
-195
-39
224
167
35
184
7
-255
10
92
-206
-224
-51
-382
-581
-176
-198
-349
-204
-164
-255
-374
-369
-368
-338
-192
-202
-455
-549
-297
467
1950
3268
3259
1622
-181
-665
-401
-322
-282
-214
-249
-140
-147
-183
-101
-150
-294
-229
-81
-198
-148
34
-67
-224
-183
-131
-173
-14
67
-104
-59
-70
-172
-88
22
30
9
175
260
40
65
161
8
82
293
337
233
365
513
283
327
559
450
474
644
667
604
686
776
620
627
775
762
681
665
582
284
144
343
176
-92
98
67
-159
-64
-120
-346
-206
-111
-211
-221
-161
-199
-302
-145
-104
-223
-85
-106
-296
-246
-136
-195
-230
-125
-212
-411
-239
-52
-173
-235
-159
-155
-231
-156
-204
-327
-136
-78
-250
-237
-132
-208
-423
-316
-122
-234
-186
-134
-285
-425
-256
-91
-209
-116
-212
-350
-133
-113
-225
-139
-3
-103
-158
-28
54
73
98
52
1
93
97
-162
-282
-125
-304
-492
-263
-170
-306
-295
-257
-364
-483
-462
-249
-256
-279
-193
-397
-614
-673
-81
1261
2609
3471
2733
665
-576
-705
-449
-185
-227
-164
-153
-233
-233
-365
-253
-162
-147
-42
-196
-182
-44
-54
-152
-132
-51
-160
-52
31
-33
-158
-228
2
32
117
211
-52
-53
71
-41
81
355
224
15
225
321
153
235
455
425
348
530
559
454
602
729
572
516
784
794
749
930
852
652
551
626
473
302
450
302
105
171
41
-254
-145
-73
-217
-59
30
-186
-270
-89
-163
-310
-95
0
-144
-105
-28
-253
-271
-37
-139
-234
-45
-38
-197
-73
-72
-306
-214
19
-90
-214
-44
-184
-433
-191
24
-182
-284
-62
-149
-268
-86
-240
-382
-247
-95
-137
-241
-58
-207
-475
-194
-27
-227
-212
-92
-227
-292
-86
-62
-214
-49
162
83
14
92
43
-41
111
45
-202
-193
-263
-336
-258
-254
-298
-379
-315
-173
-382
-499
-270
-293
-292
-117
-246
-467
-491
-592
-268
1175
2586
3265
2786
813
-658
-718
-600
-371
-123
-107
-31
-157
-188
-45
-263
-440
-166
-98
-251
-90
36
-141
-263
-226
-208
-112
32
-6
-132
-2
80
-182
-237
79
90
-42
149
65
-186
79
235
92
174
286
256
196
143
158
282
489
550
420
503
573
366
385
759
819
657
694
780
609
467
683
566
361
400
316
100
-63
-20
-102
-64
101
-131
-197
-128
-394
-326
-138
-193
-256
-192
-79
-233
-315
-314
-381
-267
-56
16
-192
-287
-38
-188
-382
-99
-99
-217
-100
-120
-269
-218
-86
-198
-250
-69
-101
-460
-382
-136
-302
-146
-67
-266
-295
-253
-183
-257
-168
-114
-274
-233
-173
-293
-378
-213
-270
-365
-34
28
-126
8
123
23
-26
11
43
47
-52
-158
-328
-415
-163
-212
-443
-299
-301
-416
-332
-314
-334
-321
-162
-323
-643
-295
-272
-708
-559
322
1440
2468
3140
2197
71
-789
-531
-482
-309
-120
-366
-413
-149
-172
-222
-111
-101
-283
-278
-71
-201
-249
-72
-177
-205
-27
-96
-210
-62
-17
-143
-84
19
-42
-34
83
-147
-255
176
272
19
62
215
145
111
187
201
178
283
433
336
344
610
564
343
457
517
509
743
641
510
768
825
587
438
552
440
249
350
181
-133
-28
23
-276
-305
-55
-53
-195
-146
-155
-341
-274
-78
-152
-206
-4
-120
-424
-155
-37
-294
-163
-159
-288
-153
-54
-91
-211
-142
-105
-212
-165
-116
-158
-209
-167
-226
-226
-70
-93
-242
-359
-201
-141
-260
-114
-142
-329
-159
-165
-396
-280
-153
-256
-215
-161
-303
-249
-103
-150
-223
-12
174
42
-53
33
7
-207
-81
61
-395
-483
-63
-216
-459
-280
-313
-458
-368
-309
-391
-315
-137
-385
-477
-158
-385
-765
-525
234
1224
2237
3061
2389
371
-691
-609
-482
-376
-159
-209
-270
-124
-141
-400
-503
-145
-110
-212
-68
-216
-225
11
-222
-454
-224
-29
-50
-42
8
-168
-211
76
17
-169
62
45
-140
37
33
-52
99
107
5
93
323
371
152
182
361
280
383
545
495
505
552
538
442
615
831
654
705
759
400
387
613
420
135
213
292
99
55
39
-220
-236
-14
-93
-262
-159
-121
-236
-292
-323
-156
-159
-108
3
-302
-224
-59
-269
-265
-6
-92
-360
-109
-22
-278
-156
-15
-180
-193
-136
-320
-259
6
-97
-224
-89
-94
-291
-342
-157
-133
-274
-136
-45
-320
-276
-50
-350
-366
-62
-310
-392
5
5
-221
-189
-33
-133
-240
-28
-22
16
236
164
56
11
-172
-198
-22
15
-154
-164
-40
-127
-423
-351
-91
-322
-395
-166
-283
-403
-253
-289
-367
-285
-360
-662
-265
996
1998
2818
2982
1404
-433
-683
-282
-258
-299
-293
-338
-249
-43
-115
-224
-100
-73
-273
-391
-160
-60
-141
54
32
-193
-27
-4
-356
-293
15
-12
-40
152
89
-64
36
-73
-184
70
245
139
90
250
243
94
112
254
305
322
463
496
370
319
466
575
671
785
686
714
860
601
456
806
761
494
566
572
375
84
-70
-91
5
110
1
-100
-82
-118
-277
-292
-71
-115
-199
-14
-70
-227
-119
-171
-418
-265
-18
-160
-217
-18
-52
-365
-280
-19
-130
-199
-36
-45
-362
-225
-79
-264
-78
-17
-216
-207
-54
-125
-470
-408
-116
-188
-133
-53
-229
-149
-198
-499
-320
-63
-133
-162
-122
-199
-387
-404
-131
-63
-86
101
35
-147
91
227
7
30
206
27
-145
-223
-368
-372
-304
-121
-178
-241
-166
-324
-391
-340
-312
-289
-242
-200
-353
-462
-421
-659
-546
735
2109
2956
3253
1765
-401
-849
-372
-308
-290
-92
-103
-229
-111
-183
-404
-188
-28
-134
-169
-79
-116
-384
-241
4
-106
-71
44
-64
-207
-50
5
-176
-45
167
41
19
217
106
-11
62
92
52
119
279
189
155
314
269
217
495
539
339
544
665
510
541
684
689
614
667
650
610
791
814
514
512
575
262
118
266
58
-203
55
67
-216
-113
-47
-316
-309
-72
-142
-324
-202
-63
-242
-385
-153
-84
-176
-43
-117
-244
-90
-79
-290
-215
-36
-189
-266
-71
-69
-308
-242
-118
-235
-213
-207
-399
-326
-29
-134
-317
-166
-166
-290
-307
-304
-326
-346
-195
-176
-331
-232
-165
-371
-346
-169
-272
-279
-113
-160
-208
-27
10
-87
47
161
-59
-56
189
-47
-259
-65
-114
-361
-364
-380
-491
-358
-180
-304
-448
-340
-291
-453
-391
-142
-375
-521
-276
-620
-778
222
1413
2502
3490
2673
300
-818
-501
-214
-342
-305
-71
-259
-289
-148
-287
-248
-47
-186
-308
-174
-207
-233
-65
-85
-191
-152
-8
-50
-232
-35
76
-94
-65
73
3
-41
68
22
-2
125
241
126
8
154
196
149
312
350
278
426
468
365
461
613
516
466
683
716
602
756
698
487
647
856
716
336
287
302
79
217
268
-118
-94
61
-162
-271
-198
-184
-247
-161
-116
-261
-195
-135
-304
-370
-181
-167
-314
-146
-83
-265
-246
-68
-114
-285
-180
-147
-238
-108
-61
-254
-310
-180
-198
-269
-180
-197
-339
-199
-119
-336
-225
-32
-300
-389
-148
-225
-353
-207
-176
-373
-300
-87
-284
-369
-146
-210
-299
-110
-76
-200
-68
136
-20
-36
150
47
-102
42
-10
-365
-304
-167
-298
-410
-295
-285
-417
-304
-344
-469
-357
-260
-363
-391
-139
-355
-733
-546
-375
268
1676
2795
3025
1921
103
-861
-815
-316
-70
-278
-276
-138
-278
-341
-150
-179
-364
-235
-37
-236
-218
-41
-179
-163
13
-153
-294
39
167
-233
-279
61
-100
-158
148
66
-41
140
86
-26
84
128
69
139
181
147
318
406
314
324
455
505
377
425
576
450
442
752
815
559
643
803
538
439
588
475
305
261
147
146
211
120
-65
-145
-27
-118
-333
-239
-99
-217
-183
-22
-250
-367
-232
-239
-180
-91
-102
-310
-346
17
-24
-213
-111
-120
-185
-85
-28
-268
-248
-175
-391
-244
-44
-132
-188
-222
-248
-231
-207
-110
-214
-338
-120
-255
-452
-146
-160
-418
-325
-179
-212
-139
-68
-271
-293
-52
-65
-197
-96
29
10
27
87
-4
-112
72
106
-171
-308
-272
-255
-279
-213
-339
-444
-307
-296
-370
-262
-132
-358
-476
-206
-265
-562
-618
-575
-50
1185
2252
2903
2589
765
-718
-778
-366
-207
-269
-145
-159
-501
-312
-44
-384
-403
14
-8
-338
-179
-45
-238
-172
-15
-67
-197
-126
-72
-102
-97
-38
-62
-141
-34
40
3
63
57
-11
139
242
76
-48
217
254
104
326
382
214
201
425
522
426
598
632
463
579
633
511
582
715
570
481
683
487
223
404
169
-33
233
197
-104
-110
114
-99
-329
-153
-215
-271
-83
-62
-239
-203
-85
-273
-258
-63
-101
-193
-115
-56
-259
-316
-96
-100
-208
-3
28
-289
-190
-82
-228
-73
49
-138
-184
-33
-191
-309
-234
-201
-204
-205
-102
-178
-226
-259
-320
-180
-128
-127
-182
-215
-148
-350
-401
-62
-79
-142
80
85
-46
0
116
106
19
79
194
-64
-285
-194
-277
-285
-156
-327
-449
-248
-215
-412
-315
-185
-367
-502
-355
-250
-294
-271
-440
-454
535
1937
2684
2844
1662
-320
-841
-400
-227
-231
-98
-170
-490
-355
-77
-154
-224
-52
-50
-210
-129
-72
-330
-277
3
-174
-192
86
-57
-306
-221
-97
-97
1
168
41
-115
45
91
-122
-82
171
105
25
204
138
6
257
328
212
443
465
374
526
472
396
483
683
708
504
649
863
622
609
725
409
313
369
251
180
294
333
-78
-274
-38
-66
-185
-56
-69
-301
-271
-171
-412
-336
56
-97
-259
-48
-99
-267
-141
-97
-165
-137
-246
-293
-193
-39
-50
-299
-167
-40
-229
-220
-132
-105
-238
-212
-105
-228
-137
-100
-277
-280
-149
-281
-415
-101
-14
-238
-165
-131
-245
-223
-272
-310
-283
-144
-82
-222
-122
-24
-275
-287
60
114
72
59
88
122
112
130
-79
-269
-258
-256
-285
-176
-217
-352
-296
-403
-448
-239
-91
-215
-335
-189
-162
-336
-476
-585
-614
172
1623
2644
3193
2555
480
-786
-571
-303
-332
-257
-127
-214
-271
-106
-105
-184
-378
-316
-82
-180
-54
-54
-101
53
11
-107
-229
-216
-96
-18
112
51
-88
7
3
-145
-5
200
116
64
251
268
-81
-33
208
190
341
443
322
318
471
447
361
581
583
266
523
822
708
715
831
749
568
722
668
362
525
490
164
169
62
-257
-226
10
11
-59
-84
-140
-170
-189
-134
-143
-247
-114
-69
-326
-265
-157
-420
-272
52
-60
-148
-79
-226
-392
-145
17
-171
-140
17
-125
-247
-182
-240
-264
-131
-104
-215
-306
-325
-220
-152
-106
-101
-253
-138
-166
-425
-238
-125
-274
-304
-122
-99
-316
-330
-308
-303
-148
-29
-154
-275
-138
-187
-279
27
192
36
74
199
60
7
105
-68
-268
-140
-73
-276
-332
-210
-291
-345
-267
-343
-395
-319
-280
-387
-366
-225
-287
-368
-387
-557
-394
739
2073
3043
3206
1624
-355
-819
-434
-340
-391
-247
-138
-234
-208
-71
-197
-332
-190
-173
-288
-103
20
-148
-130
-38
-160
-271
-29
58
-157
-31
71
-39
-55
-34
-46
-89
74
159
31
59
179
48
25
330
296
216
283
161
200
496
559
410
426
464
515
638
705
669
624
738
777
633
587
693
618
322
402
429
180
186
118
-29
-122
-228
-178
-62
-105
-144
-189
-125
-36
-242
-336
-170
-154
-262
-131
-114
-328
-224
-48
-141
-190
-213
-317
-285
32
61
-249
-139
-12
-232
-261
-134
-175
-228
-122
-161
-291
-205
-281
-315
-177
-127
-319
-389
-106
-180
-323
-213
-166
-223
-225
-122
-227
-294
-107
-181
-334
-243
-190
-218
-205
-137
-232
-327
-77
2
-63
136
221
71
114
251
50
-155
-101
-167
-362
-313
-208
-323
-312
-151
-325
-515
-339
-384
-412
-141
-144
-354
-344
-298
-573
-587
351
1596
2573
3358
2539
200
-800
-451
-434
-450
-113
-24
-241
-164
-154
-333
-204
-93
-198
-197
-19
-41
-240
-188
-34
-77
-66
1
-59
-144
-170
17
64
42
147
16
2
161
-1
-96
169
223
12
135
253
164
298
379
295
246
336
355
261
450
707
557
452
747
714
563
671
701
734
762
740
493
391
530
270
80
251
173
