-244
-319
-219
-164
-305
-278
-113
-234
-321
-131
-176
-339
-222
-125
-314
-232
-8
-254
-301
-92
-126
-235
-186
-77
-191
-249
-167
-214
-229
-200
-187
-259
-386
-214
-155
-239
-110
-156
-246
-137
-205
-416
-203
-72
-336
-307
-169
-245
-239
-106
-131
-123
59
105
-41
-82
63
2
-91
19
-129
-344
-248
-197
-237
-249
-278
-303
-317
-252
-316
-367
-225
-296
-399
-249
-232
-490
-570
-471
-21
1120
2279
3150
2938
1124
-415
-646
-435
-225
-149
-185
-176
-182
-177
-191
-227
-189
-156
-56
-76
-231
-141
-59
-155
-74
-2
-173
-136
-22
-128
-133
8
28
-78
-45
86
30
-75
73
157
61
132
188
183
235
279
263
172
274
415
384
485
590
532
630
769
610
594
795
811
770
815
848
735
672
678
467
303
339
247
33
9
46
-135
-194
-98
-180
-284
-200
-171
-275
-243
-206
-294
-228
-112
-264
-321
-209
-244
-236
-148
-154
-190
-166
-176
-259
-224
-88
-99
-179
-214
-173
-190
-221
-167
-234
-243
-167
-221
-323
-285
-191
-242
-284
-232
-271
-322
-260
-231
-291
-270
-219
-262
-232
-257
-317
-260
-249
-261
-301
-219
-117
-229
-250
-144
-199
-176
0
36
-44
-39
8
-85
-120
-152
-325
-302
-216
-319
-376
-308
-237
-327
-365
-302
-415
-349
-220
-360
-281
-225
-488
-663
-496
436
1655
2718
3585
2724
430
-680
-510
-319
-101
-20
-216
-229
-95
-115
-187
-142
-99
-188
-74
133
-118
-288
-95
-6
-13
-59
-118
-135
-61
6
-78
-68
54
127
90
43
33
-6
72
154
139
152
213
202
188
303
366
323
406
524
504
500
591
640
617
802
886
798
982
1022
950
1001
922
898
844
704
636
468
370
385
221
39
61
-3
-68
1
-80
-169
-90
-32
-163
-248
-68
-52
-283
-275
-203
-204
-55
127
56
-131
-168
-143
-160
-123
-94
-171
-35
36
-157
-51
75
-133
-177
-35
-27
-122
-72
33
-149
-218
-71
-103
-211
-141
-94
-222
-281
-194
-74
-105
-88
-77
-182
-106
-89
-202
-146
-24
-182
-257
-93
-182
-199
-9
48
-5
20
117
-62
-101
162
27
-136
-12
-106
-290
-230
-157
-264
-329
-225
-236
-301
-352
-384
-385
-407
-257
-231
-385
-295
-300
-611
-686
-179
875
2190
3268
3351
1741
-278
-796
-429
-212
-198
-245
-143
-170
-284
-227
-171
-253
-303
-122
-127
-241
-188
-180
-173
-106
-127
-197
-168
-119
-98
-135
-88
-10
-94
-103
13
-59
-74
115
119
-8
-58
99
174
68
246
256
45
239
386
345
428
510
518
531
634
684
607
652
789
803
806
838
888
752
602
491
303
321
268
114
135
58
-225
-246
-116
-260
-365
-242
-215
-332
-333
-239
-334
-341
-273
-337
-272
-192
-236
-322
-325
-241
-275
-333
-231
-234
-320
-217
-188
-337
-265
-194
-428
-438
-230
-231
-336
-257
-172
-346
-334
-211
-367
-392
-265
-277
-274
-228
-275
-384
-388
-276
-291
-273
-200
-511
-543
-182
-202
-327
-282
-204
-299
-377
-234
-233
-286
-165
-103
-142
-33
22
-175
-174
-14
-44
-66
47
-105
-373
-405
-366
-292
-357
-378
-307
-475
-398
-256
-400
-312
-257
-321
-292
-298
-373
-631
-716
-183
943
2294
3426
3353
1406
-439
-715
-436
-162
-156
-267
-146
-151
-248
-250
-172
-117
-176
-181
-134
-166
-152
-82
-131
-195
-59
-45
-113
24
-51
-154
39
67
-64
-50
8
17
19
65
102
91
91
133
135
171
260
293
307
403
353
258
485
624
538
693
860
606
607
814
751
753
842
864
761
725
755
566
390
380
309
143
62
37
-58
-110
-115
-123
-193
-235
-224
-287
-245
-217
-287
-190
-357
-468
-211
-150
-187
-234
-171
-31
-213
-328
-198
-264
-255
-154
-157
-178
-278
-278
-268
-247
-173
-284
-305
-208
-256
-176
-211
-445
-402
-317
-280
-285
-360
-258
-160
-340
-369
-275
-381
-332
-241
-319
-326
-289
-409
-488
-283
-206
-343
-307
-210
-218
-234
-151
-95
-128
4
127
-41
-210
-186
-161
-239
-305
-297
-374
-455
-366
-384
-430
-285
-261
-370
-327
-233
-285
-350
-365
-376
-399
-512
-681
-273
988
2159
3054
3063
1268
-573
-830
-408
-281
-290
-120
-77
-270
-264
-220
-275
-223
-172
-131
-120
-154
-82
-106
-204
-216
-180
-93
-63
-78
-63
-55
-45
-80
-117
-11
30
-26
95
107
5
100
93
8
192
327
115
187
372
237
211
377
455
410
625
715
492
569
674
682
769
789
844
779
683
732
645
531
476
312
153
213
137
-101
-73
-73
-193
-231
-151
-137
-302
-270
-228
-335
-234
-172
-276
-211
-191
-344
-227
-82
-223
-261
-181
-115
-142
-174
-144
-374
-391
-207
-239
-236
-180
-164
-286
-296
-170
-263
-304
-272
-302
-260
-302
-153
-81
-362
-315
-278
-435
-322
-208
-334
-356
-286
-364
-293
-228
-319
-346
-236
-176
-331
-279
-141
-241
-237
-121
-125
-134
-8
41
-186
-193
-101
-306
-324
-267
-252
-232
-368
-462
-455
-365
-296
-354
-365
-325
-362
-295
-259
-442
-535
-592
-505
257
1492
2681
3410
2474
347
-725
-640
-333
-115
-100
-145
-191
-271
-351
-207
-101
-227
-145
-124
-260
-172
-117
-116
-97
-87
-27
-65
-31
16
-160
-69
122
-105
-132
37
23
29
77
204
108
-87
112
172
135
287
310
288
346
442
387
330
468
530
552
640
680
700
828
881
757
816
956
891
780
808
668
446
477
358
124
85
33
-64
-98
-61
-167
-302
-193
-85
-165
-261
-200
-259
-340
-220
-230
-340
-242
-241
-390
-221
-148
-283
-225
-183
-160
-202
-220
-174
-283
-244
-175
-299
-306
-146
-109
-254
-251
-202
-285
-258
-198
-286
-322
-145
-185
-400
-297
-185
-256
-313
-355
-360
-281
-195
-228
-259
-216
-291
-303
-230
-235
-299
-331
-253
-203
-261
-226
-151
-195
-109
-38
-34
31
-3
-66
-154
-133
-96
-322
-334
-240
-399
-402
-303
-406
-475
-330
-262
-218
-294
-517
-337
-237
-362
-420
-619
-563
281
1529
2587
3549
2983
663
-638
-488
-230
-179
-191
-202
-211
-184
-222
-259
-201
-258
-300
-92
-22
-114
-15
-14
-146
-79
-56
-149
-106
-47
-70
-98
-87
-63
129
121
-24
17
-38
39
91
58
174
181
90
160
279
259
282
369
415
434
436
564
614
555
729
820
771
883
784
680
862
919
837
728
663
579
373
324
274
84
13
-13
-110
-150
-59
-142
-381
-236
-27
-293
-309
-115
-287
-344
-256
-302
-406
-282
-115
-291
-286
-139
-353
-301
-70
-221
-313
-219
-150
-277
-320
-186
-274
-343
-236
-138
-208
-223
-169
-314
-329
-249
-350
-334
-198
-251
-298
-277
-362
-402
-314
-294
-350
-302
-227
-319
-370
-245
-276
-392
-197
-83
-349
-381
-245
-340
-365
-204
-181
-223
-163
-83
-51
-78
-33
-38
-98
-73
-136
-314
-314
-260
-346
-329
-269
-358
-434
-319
-258
-421
-423
-347
-370
-287
-293
-415
-596
-696
-401
485
1912
3167
3523
2267
106
-775
-429
-229
-280
-198
-93
-246
-333
-216
-117
-127
-225
-207
-143
-162
-79
7
-129
-213
-122
-102
-94
-6
14
-55
-66
-35
-67
-28
110
87
-35
48
169
75
61
184
47
100
325
196
186
298
362
410
431
503
561
693
763
669
666
766
846
854
883
949
871
767
800
683
417
399
325
117
108
130
0
-47
-18
-182
-253
-178
-146
-159
-217
-260
-323
-304
-209
-287
-324
-152
-146
-287
-318
-268
-155
-180
-189
-150
-228
-172
-150
-282
-206
-131
-297
-297
-230
-229
-216
-210
-167
-271
-301
-273
-339
-316
-213
-189
-338
-301
-202
-239
-134
-153
-349
-243
-131
-336
-343
-223
-178
-217
-252
-129
-277
-366
-29
37
-162
-27
120
-23
-42
55
57
142
244
151
23
58
89
-8
43
86
-11
13
62
6
-53
-12
-23
-27
39
35
-88
-118
-46
-213
-370
-342
-109
771
2030
3132
3443
1970
-25
-679
-479
-145
-52
-180
-129
-131
-260
-222
-51
-84
-189
-8
12
-241
-192
-50
-61
-79
-40
-75
-153
-35
-34
-111
-81
-37
12
-97
-57
112
-4
-3
126
119
63
71
121
123
214
175
134
319
361
299
344
472
463
506
657
601
576
607
725
834
879
802
594
598
652
575
388
317
275
49
24
26
-232
-257
-107
-242
-224
-128
-404
-398
-242
-287
-290
-403
-377
-283
-323
-243
-222
-277
-215
-111
-196
-395
-336
-249
-274
-306
-270
-239
-307
-251
-279
-330
-231
-337
-398
-213
-233
-384
-317
-270
-375
-323
-292
-414
-391
-238
-274
-324
-257
-328
-367
-281
-174
-222
-388
-338
-220
-298
-334
-241
-306
-287
-74
-157
-311
-99
-1
-131
9
-49
-236
-74
-32
-147
-190
-244
-232
-233
-351
-344
-313
-389
-278
-243
-354
-328
-292
-362
-387
-259
-362
-497
-540
-668
-69
1313
2445
3174
2900
1026
-558
-607
-331
-271
-215
-197
-191
-237
-124
-117
-319
-218
-84
-141
-188
-153
-98
-148
-91
-24
-44
26
-6
-109
-132
-28
41
-50
-29
123
17
-112
106
109
19
213
238
97
192
348
273
244
406
407
257
417
589
477
469
681
735
666
848
915
762
815
873
799
909
867
642
716
555
89
135
319
119
-39
-38
-66
-119
-178
-167
-212
-336
-271
-160
-198
-229
-124
-158
-360
-271
-103
-212
-260
-169
-282
-258
-129
-257
-241
-122
-129
-219
-173
-116
-245
-218
-182
-253
-223
-119
-225
-409
-230
-197
-336
-264
-178
-241
-421
-348
-216
-328
-268
-162
-221
-151
-216
-334
-293
-261
-285
-292
-195
-205
-344
-284
-212
-345
-280
-218
-275
-149
18
-77
-220
-12
112
-23
-22
-18
-163
-221
-162
-233
-351
-311
-269
-330
-322
-283
-322
-255
-289
-380
-353
-317
-219
-276
-323
-346
-620
-621
287
1636
2786
3545
2719
517
-641
-451
-267
-233
-201
-216
-174
-145
-158
-157
-147
-111
-145
-168
-44
-57
-217
-73
23
-131
-102
-31
-28
-88
-85
20
-34
12
154
10
-77
84
167
90
90
146
104
116
236
210
214
439
393
288
370
372
489
617
593
618
663
734
714
703
894
919
808
872
882
690
640
687
516
299
198
122
73
17
-65
-138
-212
-205
-262
-275
-109
-150
-283
-190
-131
-250
-229
-209
-321
-312
-190
-135
-247
-254
-161
-236
-159
-33
-278
-325
-125
-189
-245
-167
-199
-275
-288
-223
-364
-468
-140
-142
-347
-213
-204
-303
-266
-255
-363
-361
-189
-227
-323
-248
-227
-365
-403
-295
-383
-395
-138
-150
-348
-239
-184
-362
-236
-178
-370
-177
-9
-177
-251
-52
96
-39
-41
5
-80
-66
-106
-258
-310
-254
-248
-363
-437
-358
-304
-276
-262
-303
-353
-317
-296
-364
-295
-343
-637
-690
-133
1016
2329
3361
3388
1613
-374
-593
-314
-393
-177
-142
-305
-188
-141
-250
-188
-47
-131
-200
-33
-22
-158
-136
-71
-176
-156
9
-44
-94
-16
-26
-108
-99
7
12
25
104
77
68
188
229
88
114
164
155
229
320
284
213
441
530
383
472
625
581
605
741
751
715
854
934
779
807
890
707
597
713
567
277
304
230
46
48
-8
-177
-253
-143
-152
-259
-252
-285
-292
-285
-261
-233
-289
-251
-237
-291
-162
-161
-323
-255
-195
-225
-151
-90
-187
-259
-201
-257
-266
-192
-246
-257
-209
-233
-290
-295
-258
-284
-319
-257
-257
-350
-362
-285
-278
-333
-268
-256
-394
-286
-217
-408
-363
-224
-307
-341
-233
-253
-357
-320
-268
-331
-264
-120
-183
-264
-129
-54
-123
-112
-60
0
3
-57
-161
-276
-295
-289
-332
-313
-304
-434
-393
-298
-372
-397
-383
-419
-399
-210
-174
-349
-477
-578
-419
553
1946
3034
3379
2058
-19
-780
-447
-247
-284
-209
-109
-124
-259
-207
-71
-174
-142
-31
-128
-118
-9
-120
-158
-35
-30
-49
-27
-10
-13
-81
-3
64
-56
17
108
31
20
40
67
157
196
152
125
175
292
269
236
396
394
354
502
534
461
546
664
648
708
828
759
714
828
808
734
775
731
589
496
445
268
64
124
52
-168
-111
-106
-217
-179
-100
-251
-315
-193
-248
-220
-196
-349
-447
-296
-144
-216
-264
-253
-172
-151
-151
-139
-237
-218
-165
-234
-227
-159
-159
-233
-206
-172
-273
-274
-155
-179
-307
-256
-267
-346
-226
-160
-275
-288
-256
-342
-243
-123
-240
-259
-181
-208
-310
-272
-194
-262
-231
-210
-273
-235
-187
-148
-97
-83
-36
-93
-87
102
73
-9
53
27
-29
-43
-146
-278
-261
-176
-249
-341
-248
-213
-339
-332
-259
-262
-284
-274
-305
-361
-349
-493
-646
-116
1147
2249
3072
3092
1272
-517
-657
-359
-322
-218
-147
-236
-256
-187
-197
-237
-168
-146
-219
-167
-120
-198
-177
-72
-76
-119
-65
-49
-124
-78
11
-62
-85
15
-10
-50
56
72
-26
40
146
87
75
207
218
177
293
338
311
379
438
435
473
575
554
569
714
740
715
796
869
809
787
818
672
532
574
461
301
360
321
22
-166
-75
-97
-262
-216
-202
-291
-232
-192
-239
-203
-186
-310
-312
-226
-235
-312
-298
-207
-200
-203
-191
-250
-307
-168
-22
-196
-342
-270
-284
-242
-169
-224
-244
-282
-267
-219
-250
-112
-151
-430
-405
-284
-336
-353
-282
-329
-326
-242
-293
-312
-286
-305
-244
-196
-235
-283
-323
-268
-295
-335
-229
-274
-378
-276
-249
-222
-6
-47
-256
-230
-32
68
-32
-62
-54
-10
-47
-271
-279
-314
-377
-346
-412
-382
-360
-377
-348
-317
-308
-346
-299
-281
-343
-312
-368
-606
-579
292
1597
2767
3667
2929
709
-523
-505
-377
-187
-56
-148
-178
-110
-145
-182
-58
-43
-92
-38
-55
-140
-145
-60
-55
-97
-17
38
-53
-11
92
-15
-39
56
61
54
97
137
111
79
198
280
216
246
266
201
294
407
306
309
453
461
484
626
664
625
699
683
660
893
1012
962
924
899
790
700
771
701
509
399
282
102
33
34
-70
-170
-143
-101
-222
-183
-66
-275
-326
-170
-178
-257
-171
-200
-351
-208
-174
-275
-312
-295
-157
-238
-270
-89
-278
-324
-146
-207
-147
-111
-280
-307
-169
-212
-362
-311
-201
-219
-260
-236
-243
-283
-226
-222
-361
-320
-231
-353
-327
-229
-245
-307
-288
-274
-345
-273
-297
-342
-237
-247
-329
-263
-254
-385
-295
-116
-206
-292
-186
-81
-82
-222
-88
65
-33
18
-48
-195
-117
-145
-353
-381
-285
-245
-388
-447
-222
-290
-436
-324
-359
-393
-300
-304
-383
-381
-441
-667
-532
439
1705
2795
3587
2720
422
-711
-461
-307
-229
-60
-164
-268
-189
-294
-369
-178
-117
-162
-105
-10
-80
-161
-116
-128
-138
-56
-22
-83
-20
11
-88
-113
-37
15
28
44
69
43
48
105
80
154
272
194
57
189
341
305
337
412
515
464
414
582
594
629
834
744
677
820
816
806
868
874
694
558
567
451
337
262
119
43
50
-60
-215
-204
-129
-177
-237
-152
-199
-214
-181
-345
-327
-233
-208
-186
-244
-161
-135
-231
-180
-203
-253
-165
-116
-216
-259
-113
-171
-318
-220
-205
-254
-195
-199
-303
-278
-177
-259
-266
-144
-215
-286
-200
-240
-353
-331
-197
-298
-400
-242
-193
-242
-313
-261
-283
-321
-177
-275
-302
-151
-258
-257
-207
-307
-293
-204
-328
-409
-183
-30
-80
-137
-43
41
43
2
-68
-92
-70
-48
-149
-309
-216
-224
-550
-464
-205
-342
-352
-207
-295
-387
-327
-279
-337
-304
-161
-423
-764
-518
289
1551
2866
3619
2666
391
-763
-619
-353
-168
-129
-161
-133
-127
-151
-159
-208
-199
-194
-130
-59
-110
5
108
-127
-218
-69
-20
-22
-14
47
14
40
121
-31
-54
127
76
-8
70
118
168
247
321
299
225
293
330
285
372
419
396
538
603
505
561
681
695
741
832
842
840
899
944
854
761
733
616
462
441
364
49
-12
59
-119
-91
20
-139
-213
-147
-207
-303
-140
-97
-308
-203
-68
-206
-256
-155
-176
-211
-68
-59
-245
-187
-107
-242
-206
-156
-233
-243
-187
-150
-127
-182
-282
-244
-244
-217
-161
-268
-296
-204
-293
-386
-259
-206
-285
-223
-145
-336
-292
-78
-277
-325
-233
-284
-282
-219
-182
-417
-325
-80
-290
-276
-160
-275
-282
-221
-248
-168
-58
-69
-65
-26
128
58
-214
-78
1
-183
-229
-129
-165
-470
-417
-240
-309
-257
-263
-326
-192
-114
-376
-444
-251
-291
-409
-529
-647
-121
1208
2334
3101
3057
1263
-548
-682
-209
-243
-296
-147
-65
-66
-179
-250
-295
-164
46
-88
-230
-71
-7
-111
-111
-16
-74
-100
127
39
-132
-15
-47
-103
16
100
50
140
211
41
-47
55
181
151
188
350
294
244
367
317
255
427
517
442
569
661
555
618
799
820
772
819
874
861
798
827
749
509
496
473
267
204
139
32
-61
-221
-247
-176
-146
-174
-255
-223
-113
-244
-327
-191
-205
-208
-143
-158
-301
-339
-161
-240
-270
-104
-189
-252
-162
-39
-142
-274
-204
-237
-182
-157
-237
-201
-233
-273
-186
-194
-252
-256
-199
-171
-257
-232
-234
-323
-271
-221
-232
-259
-244
-184
-276
-286
-213
-340
-324
-188
-184
-255
-266
-82
-97
-383
-385
-274
-209
-52
-73
-139
-79
-84
-49
42
62
28
-79
-105
-155
-312
-303
-258
-376
-411
-276
-240
-210
-162
-426
-617
-450
-251
-322
-339
-136
-476
-814
-513
279
1517
2720
3520
2732
548
-484
-388
-514
-404
-119
-242
-303
-53
-130
-328
-198
-85
-129
-172
-130
-113
-79
-63
-183
-170
8
77
-143
-189
21
-70
-87
99
43
24
147
118
-2
-39
141
218
145
227
230
190
343
343
172
342
518
446
473
597
616
587
750
797
710
782
863
868
873
958
888
719
724
504
306
448
406
204
145
117
-36
-100
-98
-139
-235
-220
-140
-397
-420
-184
-175
-171
-127
-145
-238
-162
-24
-192
-275
-240
-317
-276
-190
-158
-153
-115
-83
-167
-211
-153
-215
-274
-184
-161
-213
-189
-150
-181
-151
-153
-242
-210
-124
-237
-294
-160
-220
-322
-252
-222
-312
-306
-178
-164
-224
-132
-26
-262
-369
-194
-212
-220
-139
-162
-211
-85
-35
-227
-249
-69
-23
-34
130
116
-4
139
103
-77
6
50
-162
-250
-174
-191
-268
-307
-264
-237
-280
-327
-239
-214
-337
-340
-256
-195
-281
-392
-519
-563
-34
1219
2587
3540
3288
1384
-331
-636
-355
-80
-9
-156
-149
-119
-233
-144
-57
-145
-128
-45
-93
-107
-19
-58
-77
-9
-74
-71
53
11
-8
92
43
-10
3
90
205
110
121
229
78
91
213
109
195
361
406
413
411
398
347
411
568
609
588
695
792
783
806
854
859
900
931
913
870
885
942
670
458
508
324
193
225
110
-29
-17
-32
-144
-192
-132
-99
-75
-95
-163
-170
-250
-218
-204
-176
-42
-216
-334
-107
-69
-210
-193
-115
-213
-253
-78
-95
-158
-70
-127
-236
-174
-135
-203
-198
-140
-223
-235
-122
-229
-339
-236
-212
-293
-257
-205
-196
-158
-206
-305
-308
-225
-182
-221
-198
-200
-312
-301
-150
-164
-306
-199
-106
-289
-284
-155
-279
-336
-227
-169
-90
-21
-14
-85
-13
139
56
54
82
54
-72
-312
-295
-222
-299
-387
-294
-209
-305
-384
-406
-338
-282
-346
-320
-269
-402
-434
-374
-510
-726
-325
937
2082
3047
3377
1699
-337
-729
-467
-364
-206
-192
-275
-204
-129
-232
-228
-85
-165
-224
-132
-61
-146
-233
-53
-8
-107
-13
-100
-204
-23
-6
-59
5
20
6
18
17
16
44
88
182
135
186
319
134
142
339
335
366
365
262
361
537
577
610
717
692
612
646
764
879
825
874
921
687
682
766
540
398
363
199
-8
-77
63
5
-252
-171
-100
-267
-190
-101
-266
-285
-177
-201
-306
-216
-230
-335
-141
-133
-260
-198
-164
-213
-197
-114
-188
-201
-59
-152
-295
-196
-96
-208
-225
-108
-204
-282
-166
-143
-297
-271
-108
-220
-271
-154
-264
-373
-195
-159
-304
-249
-216
-261
-281
-293
-264
-364
-314
-139
-273
-284
-171
-220
-251
-285
-306
-251
-183
-135
-167
-138
-28
-74
-40
144
109
0
4
-52
-108
-167
-216
-310
-268
-188
-354
-356
-331
-324
-287
-314
-263
-290
-375
-239
-198
-421
-360
-345
-616
-524
393
1574
2564
3399
2634
502
-573
-472
-290
-200
-123
-130
-209
-202
-171
-207
-144
-58
-121
-63
-32
-171
-168
-22
-9
-204
-55
100
-142
-68
99
13
-38
8
16
24
127
71
40
166
117
69
120
193
228
158
263
392
349
431
553
458
428
587
650
624
662
752
801
848
843
786
985
1102
765
654
765
623
469
451
354
145
40
45
-2
-100
-47
-59
-218
-241
-176
-228
-307
-132
-97
-335
-248
-161
-290
-248
-145
-150
-159
-126
-193
-267
-211
-121
-183
-162
-53
-219
-231
-99
-190
-269
-180
-168
-260
-211
-205
-222
-210
-226
-208
-251
-285
-258
-294
-281
-194
-253
-331
-202
-161
-329
-281
-268
-307
-145
-162
-287
-295
-176
-169
-278
-226
-189
-269
-204
-98
-252
-263
-31
-83
-182
-46
36
-17
48
148
30
11
130
-26
-70
44
-236
-384
-279
-313
-344
-322
-219
-249
-406
-309
-246
-370
-339
-236
-300
-283
-239
-491
-645
-119
1066
2311
3403
3515
1666
-294
-630
-349
-223
-140
-117
-205
-193
-79
-188
-210
-73
-139
-213
-77
-110
-278
-131
18
-106
-113
-16
-91
-88
38
52
11
2
12
38
22
-9
56
90
66
89
152
179
137
109
216
344
288
286
457
535
464
467
609
611
611
781
788
713
788
863
839
866
918
835
750
767
556
339
408
240
4
16
35
-46
-137
-88
-71
-235
-266
-195
-307
-274
-92
-169
-261
-167
-154
-263
-238
-165
-244
-262
-168
-179
-231
-146
-147
-241
-142
-77
-188
-214
-159
-239
-221
-77
-222
-271
-125
-189
-312
-234
-149
-273
-254
-170
-251
-344
-260
-180
-292
-259
-189
-220
-253
-260
-289
-313
-210
-278
-409
-235
-118
-267
-331
-258
-249
-252
-171
-177
-282
-223
-88
-164
-214
-11
56
-64
27
183
83
13
86
-49
-163
-128
-256
-330
-260
-290
-348
-349
-346
-407
-409
-271
-213
-337
-311
-220
-347
-311
-311
-643
-704
102
1388
2532
3565
3218
983
-589
-619
-398
-224
-132
-235
-291
-191
-130
-115
-81
-134
-223
-159
-84
-90
-98
-99
-79
-137
-118
-64
-124
-98
27
78
6
-52
-8
-5
17
108
74
53
161
152
145
209
200
125
206
294
235
343
484
444
379
537
673
569
594
744
712
802
932
814
811
916
881
805
736
655
551
380
337
200
45
142
36
0
15
-137
-265
-340
-171
-131
-281
-183
-166
-310
-255
-159
-184
-188
-103
-212
-342
-186
-185
-216
-160
-187
-174
-193
-101
-124
-279
-165
-163
-270
-206
-174
-233
-235
-115
-216
-411
-349
-259
-211
-199
-241
-300
-291
-208
-226
-285
-223
-220
-295
-247
-242
-311
-322
-286
-300
-316
-256
-194
-303
-371
-187
-182
-230
-135
-208
-275
-159
-173
-239
-106
-39
-132
-69
84
73
-26
-4
60
-80
-196
-182
-214
-268
-225
-254
-331
-283
-356
-452
-304
-238
-344
-402
-396
-346
-316
-248
-320
-621
-713
-444
462
1824
3085
3591
2139
-16
-730
-579
-381
-163
-113
-154
-247
-233
-160
-183
-122
-146
-220
-159
-176
-197
-87
-39
-78
-90
-76
-82
10
55
-71
-55
-46
-31
10
62
139
26
32
137
35
36
173
164
125
215
280
169
217
363
347
430
562
581
588
660
611
517
713
829
743
691
750
826
684
693
677
398
451
549
278
85
117
24
-168
-149
-108
-231
-226
-128
-176
-206
-248
-311
-246
-201
-224
-242
-247
-230
-226
-171
-109
-162
-135
-115
-245
-288
-196
-179
-252
-227
-112
-102
-293
-401
-293
-205
-179
-177
-280
-316
-255
-300
-254
-160
-246
-257
-160
-237
-333
-288
-268
-308
-257
-229
-345
-375
-290
-246
-317
-308
-176
-167
-226
-192
-177
-241
-230
-200
-272
-235
-108
-125
-135
-117
-109
-19
75
114
97
68
20
-83
-117
-104
-147
-229
-226
-105
-222
-393
-207
-190
-409
-345
-227
-294
-355
-273
-270
-291
-200
-391
-611
-305
521
1658
2932
3493
2149
16
-709
-403
-270
-195
-167
-153
-89
-117
-123
-145
-91
-125
-200
-42
-68
-175
-94
-46
-25
-107
-57
81
-13
39
73
-57
43
112
-37
64
250
127
74
197
248
183
158
238
216
251
368
307
344
476
440
436
539
606
618
671
805
798
722
814
909
878
891
904
836
800
678
543
457
376
362
189
53
99
-11
-51
-47
-162
-151
-94
-145
-194
-158
-154
-226
-218
-138
-111
-229
-240
-111
-217
-243
-99
-180
-297
-80
84
-159
-262
-108
-129
-252
-220
-165
-208
-173
-183
-275
-206
-119
-257
-301
-222
-308
-252
-181
-312
-283
-140
-137
-273
-258
-121
-189
-249
-146
-219
-273
-165
-279
-330
-198
-105
-188
-272
-174
-165
-214
-160
-139
-207
-177
-58
-51
-43
-9
-17
91
226
229
123
89
177
82
-87
-106
-193
-251
-184
-230
-315
-225
-127
-222
-326
-291
-222
-199
-211
-237
-256
-164
-246
-579
-631
125
1432
2589
3611
3381
1245
-462
-525
-278
-238
-5
-21
-228
-52
-9
-157
-56
-9
-129
-91
5
-85
-104
33
23
-68
-15
26
-39
-61
78
62
-40
54
51
38
114
176
97
75
240
147
53
210
268
263
317
335
271
302
496
537
477
563
629
612
714
810
796
793
886
923
878
964
902
741
762
795
624
470
428
222
160
140
-14
-66
-56
-18
-96
-158
-94
-98
-117
-79
-105
-216
-203
-91
-163
-186
-50
-61
-121
-115
-87
-95
-123
-76
-166
-196
19
-15
-124
-68
-97
-147
-108
-126
-196
-150
-73
-101
-161
-153
-115
-89
-79
-111
-216
-234
-69
-47
-200
-153
-97
-234
-257
-95
-114
-161
-58
-138
-214
-94
-93
-203
-194
-158
-204
-205
-76
-49
-187
-168
-90
-146
-41
73
7
88
179
110
101
173
94
-48
13
7
-136
-133
-115
-239
-292
-180
-194
-299
-239
-148
-205
-295
-231
-207
-291
-225
-159
-377
-619
-509
296
1703
3005
3743
2879
700
-518
-479
-264
-144
-107
-113
-57
-87
-182
-110
-73
-96
-101
-109
-121
-109
1
21
-99
-86
34
-24
-30
63
3
-4
89
88
22
83
202
103
48
212
182
105
233
233
219
312
287
274
371
416
392
450
536
529
572
686
699
673
747
803
783
835
928
856
838
915
722
557
552
445
272
228
186
-59
-202
-81
-45
-211
-214
-122
-194
-248
-160
-183
-287
-220
-140
-197
-197
-128
-165
-194
-176
-247
-324
-179
-122
-248
-167
-161
-277
-243
-176
-153
-206
-205
-219
-319
-212
-125
-218
-220
-180
-250
-299
-240
-236
-270
-260
-231
-247
-269
-174
-199
-289
-217
-220
-362
-280
-117
-263
-355
-249
-226
-298
-261
-204
-260
-239
-191
-282
-323
-209
-254
-343
-198
-91
-143
-126
-22
-16
-9
120
120
5
25
42
-157
-202
-146
-309
-341
-243
-233
-271
-261
-245
-369
-379
-298
-381
-381
-207
-136
-274
-279
-293
-673
-805
242
1676
2695
3465
2707
510
-696
-558
-410
-239
-12
-164
-280
-151
-157
-200
-97
-148
-238
-90
-130
-194
-70
-39
-25
-68
-50
-34
-102
-70
-19
-26
-70
-47
-35
-59
37
69
-13
-44
37
93
54
136
192
161
203
263
227
237
352
329
325
442
493
429
479
681
757
731
674
637
713
773
702
628
582
451
367
328
261
138
21
-11
-113
-220
-254
-226
-249
-280
-246
-333
-329
-232
-327
-347
-233
-303
-368
-272
-249
-324
-337
-229
-206
-328
-353
-275
-270
-222
-176
-269
-307
-186
-175
-317
-303
-311
-394
-360
-292
-306
-270
-194
-403
-439
-182
-247
-423
-369
-249
-315
-455
-327
-282
-371
-304
-289
-343
-342
-293
-340
-352
-254
-387
-528
-273
-189
-348
-348
-288
-335
-374
-211
-120
-194
-143
-56
-52
46
74
-106
-76
63
-103
-222
-264
-408
-363
-354
-439
-340
-292
-276
-270
-358
-288
-304
-524
-390
-197
-359
-423
-394
-630
-708
64
1375
2434
3314
2839
548
-736
-578
-408
-293
-247
-201
-185
-250
-284
-273
-202
-143
-201
-249
-160
-129
-162
-153
-218
-223
-118
-110
-156
-181
-133
-24
-40
-73
-15
-44
-42
9
-32
-58
44
137
73
93
160
113
137
237
271
294
386
376
308
420
565
487
485
697
673
612
738
742
696
746
776
707
607
549
420
277
287
185
-26
-86
-124
-182
-192
-177
-202
-306
-330
-255
-328
-356
-218
-259
-337
-224
-255
-391
-278
-202
-304
-260
-158
-193
-236
-233
-235
-269
-228
-182
-227
-177
-123
-216
-337
-257
-247
-376
-279
-216
-291
-292
-274
-338
-332
-184
-265
-315
-195
-320
-373
-209
-145
-311
-339
-257
-399
-419
-274
-242
-302
-301
-247
-288
-339
-220
-256
-366
-171
-138
-279
-151
-24
-112
-71
83
25
-35
56
19
-114
-92
-127
-339
-492
-359
-257
-380
-328
-316
-448
-403
-281
-373
-405
-227
-281
-344
-251
-448
-700
-620
41
1318
2575
3512
3092
954
-614
-677
-405
-237
-138
-168
-230
-220
-179
-220
-182
-145
-199
-165
-157
-183
-139
-73
-100
-204
-89
-27
-206
-145
-30
-50
-61
-20
40
5
61
116
24
36
102
128
106
86
103
94
204
350
341
398
458
336
382
556
593
580
625
705
699
634
654
705
829
952
820
734
794
614
409
364
259
130
21
-5
-58
-228
-263
-207
-279
-248
-135
-238
-302
-166
-250
-433
-307
-176
-308
-353
-246
-275
-406
-365
-233
-264
-205
-191
-323
-201
-78
-241
-300
-183
-237
-357
-274
-236
-280
-315
-283
-246
-340
-294
-245
-325
-304
-221
-314
-395
-300
-271
-341
-315
-243
-321
-325
-262
-403
-393
-216
-281
-364
-226
-123
-260
-331
-277
-315
-270
-128
-137
-228
-237
-192
-79
28
62
116
100
-1
-78
-62
-71
-226
-335
-314
-275
-323
-263
-217
-521
-506
-209
-358
-401
-159
-252
-419
-318
-357
-563
-695
-395
673
2013
3183
3638
2248
-37
-837
-543
-366
-150
-101
-172
-87
-155
-293
-198
-107
-179
-192
-98
-126
-223
-177
-120
-136
-117
-29
-31
-100
-8
-18
-73
51
38
-91
-39
117
37
-55
129
163
66
126
183
167
166
285
356
299
373
408
403
540
580
537
630
804
759
607
801
956
816
841
913
865
763
694
569
407
403
262
57
27
-18
-89
-61
-76
-216
-265
-149
-208
-208
-104
-352
-384
-222
-261
-206
-200
-154
-96
-313
-249
-62
-296
-339
-171
-202
-248
-240
-212
-212
-167
-203
-336
-195
-198
-353
-150
-73
-279
-322
-245
-274
-296
-243
-276
-263
-240
-299
-280
-318
-309
-323
-321
-221
-242
-327
-333
-229
-257
-324
-276
-263
-350
-296
-191
-251
-265
-87
-63
-309
-120
90
-97
-17
94
1
-14
18
-52
-271
-342
-264
-343
-355
-238
-242
-352
-424
-330
-276
-313
-305
-366
-337
-281
-337
-436
-584
-679
-492
498
1830
2902
3378
2158
94
-752
-520
-328
-250
-164
-163
-225
-288
-215
-193
-241
-136
-124
-273
-262
-109
-67
-103
-87
-30
-64
-164
-166
-101
-21
-37
-77
-8
30
-31
-40
96
64
12
177
227
132
117
154
127
179
269
242
188
326
489
432
530
663
635
687
683
664
708
756
780
718
823
856
579
498
482
420
408
265
120
-41
-101
-33
-197
-244
-141
-245
-273
-187
-238
-279
-236
-223
-217
-275
-273
-215
-246
-294
-318
-288
-210
-177
-226
-217
-219
-210
-204
-308
-273
-238
-219
-153
-257
-285
-172
-228
-321
-294
-212
-288
-339
-251
-406
-407
-178
-226
-344
-300
-260
-366
-353
-213
-300
-311
-215
-227
-245
-287
-325
-402
-390
-237
-166
-150
-99
-148
-155
-27
82
27
-103
-39
32
-86
-237
-295
-327
-362
-304
-385
-362
-196
-384
-453
-295
-350
-360
-297
-333
-365
-339
-356
-496
-659
-609
176
1381
2513
3397
2598
440
-764
-665
-350
-280
-236
-142
-68
-155
-270
-251
-276
-277
-232
-170
-142
-223
-159
-85
-218
-181
-21
-126
-143
24
-61
-144
4
72
-60
-2
95
-122
-78
116
25
-7
120
208
150
86
198
256
264
389
412
388
401
469
575
632
681
651
631
756
838
736
752
788
689
725
696
501
439
473
267
44
59
45
-98
-177
-70
-211
-401
-140
-142
-336
-206
-177
-290
-228
-176
-253
-229
-151
-224
-317
-215
-177
-270
-237
-172
-266
-347
-163
-106
-265
-163
-132
-227
-155
-191
-223
-230
-246
-243
-302
-212
-164
-353
-366
-175
-222
-300
-193
-229
-317
-303
-324
-390
-270
-154
-311
-321
-180
-211
-343
-279
-210
-324
-226
-84
-155
-201
-190
-151
-46
85
144
23
1
2
-140
-193
-217
-259
-306
-324
-245
-296
-386
-310
-343
-348
-300
-367
-332
-346
-354
-285
-331
-424
-601
-616
165
1551
2698
3470
2951
785
-598
-511
-346
-211
-123
-211
-246
-190
-133
-234
-183
-23
-170
-247
-96
-80
-180
-146
-64
-137
-174
18
-3
-88
45
-22
-56
67
28
-33
5
86
76
48
174
196
129
209
207
116
220
363
381
346
375
466
448
509
651
657
741
819
692
712
943
893
785
891
863
755
707
695
539
333
321
214
74
41
-40
-140
-145
-127
-202
-193
-111
-126
-203
-197
-149
-224
-226
-91
-146
-242
-147
-86
-127
-97
-64
-195
-286
-186
-133
-136
-135
-200
-158
-144
-195
-168
-173
-189
-239
-237
-170
-218
-240
-167
-160
-194
-266
-312
-290
-259
-176
-192
-328
-259
-190
-310
-248
-184
-290
-260
-187
-210
-274
-251
-171
-213
-320
-243
-115
-207
-165
-5
-46
3
128
50
-27
57
9
-127
-131
-240
-371
-317
-290
-361
-328
-253
-345
-433
-348
-294
-319
-314
-351
-405
-357
-280
-430
-713
-619
214
1512
2807
3662
2837
618
-648
-592
-357
-215
-158
-185
-182
-211
-320
-241
-192
-303
-239
-160
-111
-102
-123
-92
-146
-154
-55
-122
-210
-52
-23
-105
-17
32
-66
-51
82
10
-43
92
135
55
33
123
165
251
332
244
248
386
434
381
446
575
552
589
738
679
647
818
837
761
845
924
826
757
766
641
467
393
284
129
90
37
-100
-121
-112
-194
-205
-162
-209
-231
-186
-204
-297
-246
-167
-322
-322
-184
-213
-258
-198
-152
-229
-253
-140
-169
-257
-151
-162
-281
-219
-237
-323
-203
-189
-284
-295
-339
-320
-319
-313
-244
-269
-277
-237
-334
-378
-241
-254
-345
-285
-200
-348
-470
-291
-227
-324
-242
-293
-431
-289
-239
-322
-306
-240
-259
-297
-164
-97
-178
-103
31
-26
22
102
-29
-91
-34
-74
-278
-284
-220
-354
-396
-315
-315
-421
-380
-312
-338
-322
-379
-384
-306
-274
-314
-415
-561
-694
-312
930
2254
3252
3198
1367
-367
-768
-533
-237
-185
-159
-118
-182
-276
-288
-199
-207
-114
-146
-402
-181
16
-212
-169
30
-66
-162
-26
-42
-93
3
-24
-131
-108
13
-21
-45
16
-34
26
139
147
91
88
165
165
158
240
326
322
395
488
469
531
603
568
561
687
741
653
793
854
729
742
665
590
529
520
465
253
165
84
-68
-141
-68
-104
-275
-197
-202
-362
-251
-189
-323
-328
-250
-252
-224
-166
-209
-262
-180
-161
-247
-227
-165
-210
-229
-250
-296
-260
-167
-189
-388
-261
-105
-233
-227
-184
-190
-271
-298
-210
-277
-321
-221
-329
-423
-282
-346
-362
-183
-185
-319
-321
-193
-215
-306
-282
-279
-349
-338
-287
-397
-346
-194
-246
-231
-181
-127
-91
-34
71
-28
-19
129
-30
-134
-72
-239
-359
-289
-255
-370
-454
-366
-326
-341
-321
-340
-397
-332
-267
-440
-457
-292
-399
-587
-649
-374
598
1939
2979
3153
1802
-125
-815
-530
-287
-222
-99
-131
-293
-305
-233
-154
-223
-231
-106
-85
-197
-255
-152
-124
-109
-37
-100
-114
32
-28
-150
-36
23
-35
-2
57
-55
-56
143
145
36
100
195
158
90
179
258
252
336
362
339
430
569
527
425
525
582
616
770
805
722
790
862
673
600
683
602
475
439
351
153
107
121
-75
-99
4
-194
-312
-236
-233
-266
-221
-169
-267
-314
-235
-271
-308
-208
-145
-244
-302
-218
-241
-225
-137
-171
-183
-161
-136
-172
-246
-244
-258
-234
-194
-211
-278
-169
-214
-496
-314
-167
-265
-218
-166
-197
-239
-216
-224
-290
-273
-190
-257
-339
-255
-244
-251
-236
-312
-345
-248
-205
-330
-302
-227
-291
-164
-72
-138
-70
22
87
80
-18
-19
-37
-82
-44
-180
-350
-295
-279
-384
-426
-352
-346
-393
-304
-320
-376
-258
-260
-391
-338
-250
-412
-582
-574
-147
1037
2346
3324
3240
1365
-384
-637
-394
-208
-133
-209
-195
-114
-194
-216
-101
-164
-229
-153
-121
-135
-116
-137
-208
-157
-43
-63
-76
15
-29
-100
-1
45
-20
23
97
87
47
62
134
114
124
245
195
182
339
313
212
306
362
355
512
622
598
653
717
670
727
866
870
804
890
925
772
721
724
643
572
508
345
190
128
53
-49
-158
-84
-36
-185
-120
-85
-223
-211
-193
-293
-263
-173
-191
-179
-243
-274
-179
-205
-127
-107
-196
-118
-145
-238
-196
-180
-251
-207
-131
-179
-175
-151
-206
-229
-214
-230
-283
-248
-147
-178
-284
-247
-234
-303
-279
-239
-295
-245
-156
-254
-256
-179
-217
-287
-214
-177
-313
-303
-198
-213
-252
-175
-151
-196
-97
-36
-70
8
121
52
35
123
-3
-146
-95
-151
-292
-308
-260
-272
-312
-294
-357
-356
-244
-262
-371
-367
-311
-319
-250
-206
-424
-746
-640
247
1526
2774
3659
2859
643
-576
-553
-378
-191
-116
-209
-186
-99
-202
-232
-90
-140
-223
-103
-138
-252
-114
-60
-124
-95
-60
-91
-90
-1
-62
-128
-11
35
-21
35
122
59
39
133
124
69
157
211
168
209
270
252
260
386
443
412
498
630
604
594
729
746
713
849
924
810
872
943
773
773
824
620
440
431
305
140
106
67
-55
-130
-99
-116
-201
-242
-162
-213
-276
-171
-240
-269
-176
-216
-291
-249
-160
-254
-261
-159
-248
-247
-173
-221
-230
-193
-175
-194
-226
-190
-215
-234
-159
-179
-268
-243
-215
-307
-221
-143
-271
-302
-236
-249
-296
-232
-183
-255
-266
-239
-301
-277
-210
-313
-364
-179
-159
-361
-270
-150
-289
-276
-203
-252
-230
-145
-107
-127
-89
78
90
-46
-17
5
-37
-49
-165
-312
-316
-256
-276
-300
-238
-287
-394
-367
-366
-357
-332
-314
-319
-376
-298
-280
-460
-567
-623
-86
1291
2531
3352
3141
1256
-540
-790
-380
-211
-164
-114
-284
-328
-147
-126
-176
-180
-102
-89
-154
-169
-153
-161
-170
-72
-16
-125
-61
4
-99
-13
66
-28
-43
-2
-39
24
73
13
28
139
242
191
127
168
240
217
242
309
298
421
559
531
576
657
570
600
687
721
726
780
854
708
726
896
737
540
580
398
90
128
149
-22
-62
-90
-284
-265
-110
-294
-456
-265
-165
-296
-279
-202
-224
-233
-202
-209
-245
-226
-244
-240
-256
-292
-220
-194
-241
-306
-372
-271
-183
-228
-270
-226
-189
-238
-326
-332
-266
-248
-240
-429
-437
-171
-191
-311
-211
-299
-428
-251
-257
-413
-478
-353
-198
-222
-201
-218
-307
-300
-308
-302
-282
-251
-217
-244
-108
-80
-206
-129
-53
-62
-43
-17
-87
-199
-241
-323
-317
-261
-258
-275
-253
-279
-317
-309
-341
-362
-453
-391
-214
-362
-455
-277
-431
-655
-463
362
1643
2788
3354
2436
319
-809
-616
-388
-222
-131
-185
-158
-156
-270
-270
-193
-198
-180
-164
-170
-134
-159
-210
-140
-51
-30
-93
-109
-122
-241
-96
95
72
43
-10
43
72
-100
-23
144
86
115
189
178
173
158
184
268
358
401
309
407
560
520
489
595
747
747
744
792
781
832
867
694
648
711
456
247
351
299
88
16
-17
-215
-302
-124
-103
-223
-203
-154
-283
-366
-249
-303
-246
-140
-337
-331
-204
-225
-258
-236
-175
-232
-292
-196
-201
-252
-226
-180
-263
-268
-154
-283
-281
-121
-277
-400
-218
-207
-322
-163
-224
-421
-247
-137
-220
-287
-217
-180
-312
-294
-182
-261
-316
-191
-181
-290
-216
-241
-399
-274
-164
-275
-307
-187
-165
-298
-227
-68
-81
-56
1
6
40
36
-12
-60
-148
-171
-254
-352
-276
-229
-339
-371
-312
-313
-258
-277
-362
-353
-331
-313
-289
-247
-383
-613
-525
210
1459
2717
3607
2918
736
-562
-523
-420
-217
-15
-152
-156
-120
-205
-179
-101
-140
-253
-153
-23
-98
-77
-23
-97
-96
2
-16
-75
-17
51
-37
-95
74
75
-21
109
129
-15
97
165
-1
77
254
265
257
312
374
340
365
474
382
393
596
596
549
640
750
839
878
854
878
956
1024
901
715
774
689
434
416
378
188
137
76
-86
-94
-61
-186
-267
-136
-97
-230
-217
-114
-170
-255
-169
-128
-234
-199
-162
-241
-273
-172
-101
-329
-258
-52
-250
-218
-92
-200
-207
-166
-218
-231
-190
-256
-302
-146
-118
-290
-254
-120
-209
-301
-196
-210
-302
-184
-159
-282
-252
-144
-162
-246
-253
-200
-246
-273
-244
-311
-257
-185
-256
-277
-228
-229
-213
-179
-160
-97
-67
-46
-62
-32
98
23
-130
-11
60
-139
-308
-288
-244
-386
-369
-242
-332
-317
-231
-274
-307
-265
-257
-309
-262
-281
-469
-569
-613
-137
1246
2603
3490
3295
1217
-542
-620
-290
-106
-115
-112
-88
-183
-240
-174
-183
-281
-175
-30
-121
-160
-42
-56
-100
-84
-102
-56
-26
-32
-57
-35
41
-10
-27
66
83
60
114
50
18
84
170
162
57
259
348
268
393
424
343
418
552
539
555
706
711
624
772
873
752
826
978
912
841
895
664
364
501
534
306
222
186
50
-46
-89
-144
-209
-162
-106
-286
-270
-127
-237
-290
-194
-187
-291
-300
-216
-150
-230
-284
-203
-190
-165
-155
-235
-206
-134
-226
-193
-135
-321
-307
-135
-233
-330
-159
-66
-216
-284
-185
-160
-241
-207
-206
-290
-223
-244
-325
-265
-182
-248
-316
-163
-262
-439
-252
-175
-239
-235
-206
-196
-227
-198
-227
-296
-197
-150
-272
-256
-131
-112
-146
-95
-9
-20
30
96
-17
-84
-21
-77
-215
-215
-243
-354
-290
-285
-417
-361
-249
-317
-369
-301
-304
-378
-367
-292
-312
-470
-628
-507
387
1827
3025
3611
2577
365
-706
-496
-218
-197
-219
-143
-144
-218
-156
-137
-197
-136
-146
-181
-109
-28
-14
-80
-40
19
-64
-81
25
1
-71
-20
-9
-6
93
108
24
62
183
133
47
161
238
162
216
317
259
272
362
389
426
501
509
505
610
687
628
646
788
794
769
904
943
843
834
819
682
593
584
440
235
187
138
-31
-75
-14
-124
-180
-34
-141
-291
-161
-158
-240
-206
-169
-168
-159
-111
-136
-189
-146
-124
-171
-134
-59
-157
-192
-95
-142
-177
-117
-122
-153
-147
-121
-142
-174
-131
-163
-219
-157
-133
-184
-157
-111
-173
-159
-186
-277
-222
-159
-163
-207
-189
-142
-189
-186
-102
-206
-320
-153
-113
-274
-237
-93
-136
-227
-176
-133
-110
-31
8
-64
-64
70
69
26
43
-13
-52
-63
-159
-260
-220
-170
-277
-324
-245
-281
-319
-255
-240
-285
-269
-199
-229
-289
-309
-500
-626
62
1366
2460
3339
3006
895
-604
-573
-379
-261
-86
-122
-281
-213
-104
-235
-251
-110
-122
-176
-78
-60
-147
-110
-48
-96
-119
-10
1
-104
-61
-8
-46
-34
-22
-31
30
93
64
48
141
186
113
154
236
163
180
315
304
283
422
479
365
435
609
580
599
707
705
720
803
829
814
827
806
693
649
662
501
317
284
217
92
-1
-63
-122
-175
-184
-182
-206
-206
-185
-250
-256
-217
-290
-279
-205
-211
-225
-198
-215
-289
-250
-161
-172
-217
-193
-189
-216
-127
-142
-270
-221
-158
-230
-255
-204
-227
-277
-243
-224
-263
-234
-193
-250
-288
-241
-267
-329
-280
-265
-307
-223
-194
-298
-291
-249
-299
-330
-294
-271
-282
-291
-261
-254
-289
-242
-248
-292
-168
-103
-176
-143
-11
-19
-64
13
-52
-174
-71
-86
-302
-288
-199
-256
-312
-320
-361
-355
-276
-305
-350
-305
-271
-302
-304
-226
-356
-619
-580
16
1185
2464
3458
3187
1234
-413
-650
-423
-192
-98
-170
-140
-129
-197
-232
-163
-109
-138
-70
-59
-156
-97
-33
-95
-78
-15
-44
-74
-28
-25
-75
-30
52
63
33
39
67
69
108
133
117
160
219
206
207
278
297
280
339
402
412
488
592
545
568
733
710
671
827
913
851
861
932
856
737
739
692
506
413
357
165
84
76
-41
-99
-68
-120
-196
-178
-208
-265
-239
-187
-199
-241
-198
-183
-239
-196
-166
-268
-288
-177
-196
-251
-186
-201
-223
-165
-135
-208
-276
-249
-253
-239
-176
-202
-315
-282
-217
-286
-293
-238
-271
-273
-203
-233
-282
-274
-240
-261
-304
-241
-284
-341
-260
-274
-331
-243
-214
-317
-284
-213
-279
-316
-237
-234
-318
-252
-195
-282
-206
-34
-62
-159
-93
0
-18
50
78
-43
-39
-14
-249
-425
-314
-291
-360
-298
-280
-370
-370
-292
-342
-338
-230
-287
-343
-274
-290
-534
-734
-442
580
1938
3144
3657
2320
142
-683
-508
-316
-170
-143
-208
-141
-105
-210
-197
-170
-191
-134
-110
-189
-232
-152
-122
-152
-81
-51
-124
-62
37
-74
-147
-8
44
-40
-15
54
15
36
132
85
69
154
152
126
190
259
235
306
418
392
372
506
651
611
626
697
642
688
795
778
785
880
877
786
768
718
553
457
394
236
128
109
1
-109
-54
-41
-162
-206
-180
-239
-267
-196
-205
-271
-218
-184
-279
-270
-183
-231
-264
-191
-210
-265
-210
-147
-199
-273
-221
-226
-266
-198
-242
-318
-241
-207
-277
-256
-217
-297
-358
-308
-306
-324
-227
-256
-367
-289
-245
-321
-324
-277
-279
-343
-346
-268
-291
-309
-255
-327
-374
-252
-241
-339
-286
-236
-313
-293
-221
-283
-292
-215
-273
-317
-211
-143
-151
-136
-110
-100
-37
78
76
-41
-61
-58
-165
-236
-243
-319
-378
-310
-315
-394
-314
-275
-376
-362
-315
-409
-425
-308
-301
-361
-464
-672
-540
563
2053
3149
3597
2302
34
-805
-440
-207
-210
-163
-114
-221
-272
-173
-177
-266
-226
-120
-145
-173
-71
-73
-164
-100
-49
-115
-110
-76
-142
-140
-20
-41
-84
42
75
-46
-14
121
88
63
112
124
187
197
215
202
189
299
293
333
470
438
444
566
590
599
657
703
692
661
801
881
773
821
776
537
529
499
305
219
168
60
-37
-74
-121
-222
-184
-156
-309
-279
-180
-246
-340
-297
-250
-330
-265
-186
-281
-269
-210
-249
-262
-253
-252
-252
-216
-230
-310
-268
-162
-261
-389
-341
-297
-284
-258
-213
-284
-330
-238
-283
-303
-168
-222
-446
-374
-250
-358
-352
-276
-326
-346
-301
-330
-354
-363
-344
-315
-323
-318
-325
-339
-293
-280
-410
-373
-258
-359
-364
-264
-323
-381
-307
-260
-348
-306
-169
-208
-186
-122
-241
-233
-123
-131
-61
-37
-159
-212
-205
-296
-384
-341
-266
-320
-378
-316
-317
-395
-406
-370
-402
-399
-303
-316
-430
-419
-456
-731
-506
783
2117
3088
3406
1755
-345
-834
-489
-328
-219
-102
-279
-339
-165
-149
-237
-207
-197
-284
-243
-166
-216
-264
-96
-15
-159
-209
-150
-150
-113
-37
-117
-156
-67
-12
-52
-52
39
14
-44
15
65
32
-50
34
221
180
151
244
253
341
404
332
469
575
400
411
631
627
627
781
742
733
784
617
525
613
543
370
293
237
71
-33
102
49
-115
-38
-53
-109
-112
-98
-71
-227
-261
-225
-288
-128
-12
-202
-268
-134
-178
-265
-129
-128
-262
-207
-231
-294
-209
-169
-229
-198
-100
-252
-443
-412
-233
-247
-420
-396
-375
-360
-344
-451
-460
-459
-400
-449
-609
-348
-338
-522
-407
-447
-519
-492
-506
-545
-502
-423
-513
-605
-475
-455
-566
-443
-437
-591
-500
-371
-429
-334
-152
-301
-311
-177
-235
-270
-251
-218
-251
-427
-508
-410
-601
-691
-507
-549
-613
-508
-493
-699
-669
-644
-681
-509
-507
-404
-318
-723
-1044
-580
502
1343
1929
2148
896
-834
-1239
-867
-598
-634
-608
-427
-515
-528
-463
-588
-601
-540
-577
-603
-497
-423
-597
-687
-625
-459
-458
-638
-544
-460
-520
-642
-578
-271
-255
-378
-354
-387
-313
-146
-295
-420
-240
-219
-233
-146
-308
-423
-189
-141
-123
-39
-240
-139
-60
50
288
65
94
124
155
357
219
374
341
-224
-233
170
94
-116
-128
-479
-561
-270
-350
-620
-844
-870
-903
-849
-666
-850
-1007
-750
-718
-720
-529
-631
-676
-519
-576
-637
-633
-685
-479
-623
-807
-500
-702
-797
-372
-286
-395
-343
-283
-342
-370
-233
-243
-417
-429
-358
-368
82
620
292
355
819
668
623
890
820
703
864
1086
1188
749
350
346
450
530
347
222
27
-55
32
-265
-346
-44
-188
-606
-804
-960
-725
-589
-1092
-1100
-670
-716
-865
-957
-882
-720
-404
68
-248
-197
812
568
201
999
873
309
1061
2582
3573
4137
3913
2050
530
743
979
585
756
874
216
332
777
666
703
755
572
398
511
440
34
-147
-122
-372
-657
-689
-849
-1018
-968
-843
-929
-1182
-1215
-1182
-1303
-1319
-1173
-1256
-1176
-895
-920
-836
-862
-762
-494
-381
-211
-404
-624
-459
-488
-381
91
-379
-964
-627
-389
-218
-161
-463
-213
205
-10
-328
-253
-191
-631
-896
-760
-868
-1058
-884
-845
-1022
-377
57
-788
-1038
-18
-45
-1031
-586
-14
-113
-248
-340
-450
-903
-534
64
-155
-20
140
17
77
55
374
714
489
-22
-28
914
523
-124
924
611
-363
-140
314
527
442
425
403
495
428
311
737
509
123
420
339
336
579
413
223
169
25
-93
-99
114
109
-6
319
391
332
545
479
177
99
277
366
267
319
279
14
77
162
-80
-5
399
391
217
84
-223
-266
-116
8
61
-12
138
206
-121
-322
-39
1005
2360
3395
3854
2759
682
-339
-138
312
243
-39
-46
-276
-313
-41
-350
-513
-12
86
-122
-72
-158
-292
-251
-97
229
166
16
75
-104
-34
177
91
157
625
924
698
699
835
832
1032
871
476
476
535
541
639
497
215
17
217
885
854
191
391
693
410
589
1103
1105
790
1027
1110
629
462
336
141
212
310
237
218
523
577
-148
-403
166
231
-37
-21
123
83
58
215
69
-36
7
-221
-100
97
-127
-58
98
7
-93
-18
-2
-256
-311
-35
107
14
-324
-609
-520
-340
-321
-670
-724
-468
-551
-698
-541
-374
-421
-65
93
-219
9
335
350
390
169
-53
395
602
174
88
400
571
356
315
698
834
884
1128
1196
975
1139
1217
746
657
670
618
489
429
540
213
6
253
-90
-440
-132
-292
-311
-88
-134
-104
-243
-299
-537
-624
521
1766
2653
3556
2861
390
-779
-28
-35
-366
-120
-205
-323
32
260
-220
-354
128
-125
-661
-305
-163
-447
89
15
-890
-676
-72
-197
-345
-169
-218
-376
-231
-194
-339
-88
6
-258
-309
-152
-19
-51
172
421
247
334
599
415
417
839
753
427
835
989
304
294
950
926
610
884
994
779
755
780
772
619
616
477
100
313
365
-95
-304
-359
-358
-186
-56
-368
-484
-135
-337
-676
-486
-535
-652
-317
-269
-651
-905
-557
-104
-318
-495
-482
-262
-122
-316
-382
-242
-105
-196
-356
-264
43
-116
-330
-189
-179
-161
43
-137
-474
-21
69
-415
-270
-97
-254
-314
-222
-116
-58
-21
2
-59
-262
-242
-118
-257
-71
73
-219
-155
0
-85
-135
56
34
-50
78
-111
-206
-173
-156
-208
-375
-231
-257
-423
-114
-114
-357
-211
-182
-214
-180
-188
-267
-600
-557
155
886
1912
3387
3566
1784
-32
-602
-380
28
62
-31
121
117
-57
-148
-44
-89
-122
76
105
-98
-2
235
61
52
48
-38
206
317
446
510
317
434
398
362
650
570
577
720
619
627
774
940
862
627
553
536
742
1099
1008
659
836
1116
868
902
1329
1255
1052
1289
1400
1178
1130
1271
1146
898
1091
1095
707
708
549
229
173
169
346
108
-128
79
121
235
154
-71
67
220
154
64
224
211
38
277
206
164
332
69
-26
240
389
172
74
242
193
27
48
101
-13
-23
191
152
89
233
112
72
376
298
99
221
148
17
24
60
47
22
-168
5
212
-257
-34
43
-433
78
162
-209
180
508
342
32
139
154
82
555
400
30
231
59
-184
-48
281
32
-416
-373
-325
-299
-137
-7
-215
-219
33
-277
-342
-304
-645
-899
-838
516
2091
3299
3774
1737
-614
-833
-617
-594
-370
-773
-1125
-1213
-1473
-1037
-675
-263
137
-570
-621
-459
-548
-251
-343
-449
-406
-336
-555
-766
-359
-504
-847
-577
-541
-507
-516
-480
-409
-690
-642
-245
-223
-394
-345
-430
-636
-437
-246
-323
-437
-511
-531
-109
475
262
-3
160
132
-71
128
327
40
79
406
224
-67
34
-37
-254
-118
-222
-589
-526
-360
-422
-605
-620
-891
-1153
-455
-268
-625
-313
-353
-766
-757
-643
-599
-708
-761
-630
-736
-579
-374
-729
-624
-279
-448
-607
-603
-650
-839
-399
2
-266
-441
-681
-694
-691
-796
-805
-848
-873
-676
-694
-898
-426
-258
-628
-502
-257
-394
-525
-433
-469
-713
-528
-154
-293
-158
-78
-624
-582
-343
-602
-575
-185
-116
-432
-530
-472
-635
-959
-1157
-1087
-1158
-1198
-1180
-1335
-1399
-1366
-1315
-1180
-1184
-1249
-841
-350
-861
-1869
-1608
-256
972
1961
2809
1763
-678
-1325
-596
-526
-832
-712
-505
-498
-414
-740
-1374
-1015
-710
-658
-327
-591
-1138
-944
-293
-627
-854
-486
-557
-619
-441
-157
-166
-847
-734
152
-48
-442
-34
45
-125
160
286
325
376
-46
-496
-365
-68
1
-80
-83
182
207
177
675
1167
1395
1431
1370
1468
1355
1331
1450
1409
1463
1381
1277
1241
1179
1185
1191
1129
1118
1116
1045
1165
1216
1148
1141
1215
1187
1030
992
772
843
981
634
822
1265
1106
745
384
239
356
400
639
830
754
826
1043
1213
931
731
541
292
301
275
90
-182
-53
217
308
526
937
925
796
985
680
299
167
68
13
-165
-253
-479
-501
-311
-108
-213
-806
-668
93
322
38
73
-71
-253
-81
-655
-949
-202
38
-251
-544
-682
-519
-242
-3
186
54
-368
-227
-59
-276
-357
-333
197
1061
1752
2482
1939
-163
-1103
-444
16
119
224
175
68
184
511
549
270
462
632
367
395
456
284
265
557
668
487
733
778
498
311
176
399
408
362
237
-65
-74
-183
-316
-408
-740
-1486
-2052
-2140
-2795
-3227
-2632
-2330
-2414
-2253
-2236
-2209
-2037
-1996
-2056
-2138
-2021
-1567
-1240
-1044
-787
-659
-576
-794
-493
104
197
383
711
1639
2534
2400
1926
1878
2104
2027
1639
1501
1831
1933
1476
1184
1137
1366
1541
1163
1165
1241
932
1070
1012
830
1099
828
488
483
612
862
784
758
830
969
850
474
795
1009
990
981
721
883
1114
864
764
961
681
423
454
416
277
144
396
593
157
-367
-674
-676
-552
-758
-1002
-1011
-719
-809
-1239
-1223
-1149
-1100
-1013
-1064
-1094
-1395
-1966
-2464
-2309
-1876
-2457
-3678
-3869
-3288
-3039
-2337
-2095
-2583
-2305
-1846
-1859
-2006
-1798
-1646
-1567
-382
1060
1626
1528
-15
-1742
-1788
-1224
-709
-553
-620
-295
-170
-363
-392
-395
-431
63
347
102
201
380
607
909
936
712
572
862
1042
751
773
1139
892
665
897
707
700
961
825
701
724
780
628
333
333
273
296
586
403
214
324
311
367
324
339
307
121
223
268
111
175
459
151
-97
348
-1
-340
51
-75
-232
-167
-253
-242
-139
-46
-332
-602
-135
-39
-529
-642
-411
-270
-435
-400
-146
-220
-318
-423
-558
-245
-313
-422
-92
-295
-826
-782
-246
-283
-376
-410
-628
-556
-511
-479
-411
-366
-356
-548
-680
-454
-394
-678
-479
-117
-533
-681
-516
-893
-667
-215
-314
-151
-107
-475
-597
-467
-278
-251
-644
-479
-83
-312
-327
-104
-212
-343
-198
-265
-348
-114
-248
-424
-197
-294
-589
-462
-406
-320
-296
-614
-471
-469
-548
-350
-576
-656
-373
-692
-1127
-809
-436
370
1875
2633
2234
637
-879
-907
-967
-992
-568
-720
-801
-529
-821
-1056
-639
-639
-877
-890
-680
-791
-957
-691
-774
-763
-530
-617
-883
-846
-630
-674
-714
-832
-830
-589
-373
-449
-1032
-847
-452
-917
-840
-367
-473
-576
-453
-569
-568
-396
-409
-515
-587
-604
-686
-850
-542
-341
-619
-422
-191
-370
-539
-272
-227
-408
-327
-557
-735
-460
-247
-340
-512
-834
-1047
-720
-387
-349
-536
-724
-706
-803
-647
-482
-592
-467
-351
-325
-450
-411
-312
-516
-426
-164
-124
-284
-58
161
-252
76
517
77
-63
31
113
144
47
276
146
-155
70
-47
-307
-50
-1
35
273
138
35
-30
-93
-45
130
118
-129
-126
-170
-139
-276
-135
221
-262
-247
215
-179
-425
-226
-437
-654
-711
-731
-596
-649
-725
-616
-572
-632
-863
-906
-775
-787
-801
-659
-500
-869
-980
37
837
1135
1698
856
-1295
-2146
-1659
-1206
-877
-417
-184
-469
-683
-421
-379
-624
-524
-444
-499
-244
-204
-421
-266
-97
-455
-500
-160
-171
-130
-96
-200
-254
-130
105
22
49
269
-70
-384
47
241
-134
136
485
113
148
324
267
177
105
272
296
314
343
293
305
270
232
222
250
452
551
445
400
269
174
229
267
533
470
-69
-234
-19
144
29
26
283
123
-125
143
146
-163
147
290
-324
-353
8
-139
-183
61
-250
-564
-274
-169
-292
23
250
82
182
128
-6
16
13
204
262
623
995
532
168
334
356
154
287
328
127
262
281
92
146
264
164
41
76
85
-131
-163
26
28
131
143
325
481
279
295
234
158
253
182
57
-5
-118
69
347
317
177
148
409
539
493
786
867
232
-115
247
350
91
129
727
1638
2590
3171
2382
788
-143
-278
94
414
261
297
512
332
316
524
406
204
298
546
512
508
586
425
380
554
639
501
577
802
565
446
804
815
524
566
876
788
531
704
587
463
833
886
670
703
827
758
727
785
629
727
1168
1152
909
1021
1191
1290
1371
1554
1712
1834
1928
2069
2181
1777
1405
1415
1430
1317
1244
1153
1056
990
612
653
911
640
629
780
617
612
830
520
430
875
845
567
681
863
902
958
665
518
655
542
366
532
663
468
500
493
407
492
482
468
404
295
443
438
110
105
371
466
405
284
720
1460
1598
1514
1689
1786
1515
1037
624
440
413
383
348
356
186
94
76
17
-47
-83
56
-78
-196
-374
-673
-246
41
-203
-271
-298
-294
-318
-410
-328
-304
-399
-357
-275
-187
-155
-425
-490
399
1701
2621
2908
1930
-64
-971
-265
86
18
79
2
-120
-285
20
162
-166
-70
38
-311
-367
-111
-186
-463
-668
-624
-444
-367
-501
-620
-902
-1207
-941
-769
-747
-699
-904
-655
-182
-330
-438
-293
-375
-448
-342
-360
-360
-155
-72
-157
-257
37
174
-11
46
153
183
433
975
1042
981
980
695
655
1009
980
580
660
763
644
543
415
454
342
160
395
634
561
519
1057
1870
1831
1106
942
1246
1292
1061
1013
1262
1408
1344
979
875
929
825
941
1096
1350
1587
1527
1431
1824
1918
1494
1500
1343
1173
1300
1068
715
699
709
496
433
608
479
222
216
195
393
314
-12
0
13
102
119
-190
-377
-330
-91
86
45
27
-230
-100
192
-21
54
82
-251
-235
-165
-462
-353
-47
-338
-610
-453
-316
-501
-331
-129
-299
-235
-192
-170
4
-43
-383
-394
331
1216
2155
2906
2261
464
-527
-145
115
-11
140
292
-18
-176
30
43
-60
-22
11
137
266
249
79
-31
196
145
-162
-294
-124
42
-24
89
12
-206
-16
143
-37
-25
316
296
273
127
20
421
559
410
285
638
701
272
430
497
471
602
526
391
402
411
466
522
392
755
633
297
624
586
238
95
196
181
210
245
-37
-177
-31
-210
-331
-72
55
-246
-394
54
-122
-572
-177
49
-60
154
366
-61
-390
157
223
-155
96
191
-75
-82
131
170
72
116
74
22
50
141
203
130
181
69
-3
285
176
0
283
371
165
93
46
27
111
43
90
138
1
73
62
115
144
-94
-229
-292
-310
-220
239
486
102
-35
-5
-261
-260
-161
-253
-380
-682
-731
-557
-764
-929
-1024
-1330
-1604
-1590
-1493
-1658
-1889
-1853
-1635
-1730
-1772
-1568
-740
579
1262
1419
424
-1424
-1912
-1373
-1294
-1250
-912
-835
-932
-848
-833
-769
-777
-1027
-956
-833
-775
-893
-1035
-762
-691
-728
-445
-540
-790
-649
-556
-656
-661
-482
-489
-651
-456
-333
-554
-485
-407
-343
-249
-259
-269
-376
-248
-164
-259
-424
-267
43
-131
-126
-52
-156
14
190
140
-41
0
79
86
274
174
58
153
-44
-293
-189
-201
-443
-473
-300
-316
-545
-459
-406
-621
-549
-412
-651
-823
-513
-282
-368
-455
-488
-517
-417
-187
-307
-412
-184
-327
-509
-264
-226
-437
-523
-479
-313
-349
-424
-487
-527
-354
-219
-251
-719
-930
-442
-288
-475
-704
-631
-438
-547
-558
-545
-510
-651
-732
-499
-601
-784
-526
-383
-508
-464
-379
-541
-406
35
-23
-214
-6
150
-90
-237
-4
-160
-413
-342
-632
-634
-202
-62
-187
-446
-397
-243
-143
-91
-293
-274
-120
-192
-489
-437
422
1453
2441
3269
2229
-34
-783
-550
-408
-277
-80
7
-149
-58
42
-65
10
99
-68
-97
111
57
-172
0
189
-13
35
142
-69
-142
118
112
-37
269
212
1
95
77
26
258
568
323
95
403
619
269
181
503
366
340
655
509
334
646
549
366
642
722
687
672
821
902
800
863
749
554
620
655
460
443
488
128
-30
147
-100
-258
109
265
23
-102
-115
-273
-358
-135
-204
-567
-339
-103
-450
-572
-177
-221
-509
-353
-278
-607
-389
98
-162
-126
36
-165
-179
-160
-261
-344
-70
101
-231
-379
-239
-253
-276
-340
-290
-273
-372
-287
-491
-642
-427
-486
-737
-457
-345
-632
-351
-95
-219
-73
-92
-211
2
69
-62
-222
-178
-188
-375
-322
-200
-86
-231
-334
-40
-389
-564
-31
-109
-188
44
-161
-278
-23
-52
-120
801
2015
2775
2631
635
-1067
-915
-555
-563
-268
42
59
2
-28
133
115
-19
126
129
-35
39
72
57
208
193
-45
57
334
162
87
335
304
125
151
326
197
-206
58
343
-126
-68
246
67
106
265
135
131
408
451
410
509
395
349
503
641
769
649
604
754
739
632
610
644
755
879
712
510
533
311
125
296
192
-174
-232
-31
-85
-156
35
106
79
124
-85
-374
-385
-171
-27
-252
-58
114
-290
-384
-203
-129
-176
-221
-336
-386
-354
-455
-397
-220
-195
-278
-314
-135
-122
-211
-54
-3
-102
-114
-34
-26
107
165
-60
88
269
231
379
426
357
355
532
577
205
24
-17
-72
-159
-296
-235
-128
-105
-57
-34
73
202
124
58
152
160
11
82
42
-284
135
1253
2184
2854
2637
1071
-329
-489
-179
-308
-225
232
225
176
278
227
96
2
-27
76
154
151
139
-15
-29
-16
-74
154
54
-118
1
21
81
-7
45
107
-66
66
216
165
-5
152
364
80
177
343
207
305
362
214
247
372
328
356
547
592
411
424
612
504
582
787
756
686
699
781
511
373
619
470
98
-21
59
43
-58
33
-49
-18
117
-139
-194
-32
-64
-73
13
-38
-46
264
295
73
70
77
103
79
57
166
159
189
302
103
1
446
317
-268
-8
265
91
132
152
-48
-188
-81
80
-36
74
371
181
-65
90
197
58
180
392
204
122
286
-2
-174
54
-12
-229
-148
-115
-307
-203
-142
-397
-504
-320
-290
-423
-228
-369
-673
-407
-443
-503
337
1605
2316
2688
2137
167
-1097
-826
-299
-256
-219
-75
-216
-228
-157
-242
-143
-112
-169
-210
-181
-48
-214
-368
-94
-55
-316
-144
97
-92
-177
-19
-85
-108
2
-172
-170
81
72
15
55
250
171
-31
169
181
154
322
364
326
389
520
441
359
417
438
422
589
734
564
600
782
719
690
717
551
302
299
368
157
34
100
-211
-473
-150
-28
-282
-181
-21
-254
-312
-178
-371
-543
-327
-340
-404
-164
-223
-342
-308
-183
-111
-317
-331
-253
-267
-139
-215
-328
-220
-427
-464
-180
-76
-136
-293
-318
-201
-294
-344
-174
-339
-539
-220
-54
-180
-147
-75
-118
-66
209
215
90
94
40
28
135
192
-115
-361
-142
-268
-472
-198
-266
-491
-244
-222
-444
-321
-118
-307
-574
-290
-163
-375
-350
-426
-379
404
1589
2516
3043
2349
332
-819
-698
-546
-430
-275
-105
-123
-185
-139
-181
-232
-287
-218
-267
-256
-56
-72
-146
-94
-146
-241
-190
-113
-194
-134
227
57
-116
165
-47
-220
68
98
94
178
237
212
-27
93
341
377
348
334
397
466
678
697
619
769
813
678
728
959
746
669
1022
1071
922
870
729
439
587
528
197
257
120
-80
-14
72
-106
-160
44
-172
-500
-342
-53
-122
-293
-141
-388
-586
-103
-122
-373
-266
-126
-249
-396
-316
-396
-369
-184
-229
-360
-544
-489
-240
-236
-173
-227
-517
-465
-324
-398
-379
-173
-174
-388
-291
-370
-718
-329
-4
-143
-128
-24
-98
-246
-90
-107
-157
76
273
54
-258
-323
-435
-370
-247
-422
-505
-398
-321
-440
-485
-345
-393
-379
-216
-265
-461
-549
-439
-496
-614
-138
856
1845
2817
3081
1609
-119
-613
-776
-773
-236
-162
-358
-183
-287
-421
-145
-118
-236
-129
-227
-504
-367
-21
-81
-287
-175
-113
-346
-207
87
-65
-144
15
-12
-100
-64
-26
-27
-58
-28
110
69
28
78
162
305
144
138
365
408
363
404
545
571
463
552
703
774
869
844
722
692
889
875
568
487
506
333
256
136
87
108
-11
-66
-252
-319
-170
-228
-276
-124
-282
-376
-157
-284
-377
-161
-143
-294
-233
-91
-189
-321
-219
-223
-321
-282
-313
-378
-380
-251
-343
-354
-185
-340
-331
-131
-159
-380
-313
-113
-312
-328
-194
-267
-309
-258
-114
-435
-566
-139
-166
-273
-119
-19
-120
-186
-183
-178
37
105
100
76
149
-30
-518
-407
-263
-431
-430
-190
-208
-511
-374
-172
-354
-383
-460
-593
-353
-344
-487
-425
-343
-314
27
1235
2415
2945
2766
1070
-718
-796
-379
-278
-212
-241
-291
-361
-278
-125
-316
-403
-187
-207
-270
-99
-96
-289
-318
-167
-156
-221
-173
-152
-102
9
13
-118
-136
-160
-143
38
96
-2
-87
-70
93
131
153
187
200
210
138
394
413
320
574
546
462
589
665
630
672
911
896
813
901
809
755
719
429
269
326
211
206
224
-57
-167
-78
-146
-308
-234
-110
-212
-324
-265
-222
-333
-384
-315
-235
-283
-285
-93
-175
-347
-204
-287
-373
-215
-258
-412
-230
-68
-285
-387
-193
-172
-379
-296
-247
-361
-196
-147
-488
-377
-148
-432
-415
-225
-268
-334
-278
-197
-308
-400
-229
-278
-424
-205
-200
-317
-156
-81
-203
-260
-67
28
-41
-40
-64
-42
-20
-196
-353
-303
-262
-362
-509
-357
-288
-359
-416
-506
-483
-472
-172
-223
-454
-183
-307
-624
-513
-32
984
2078
2908
2915
1266
-378
-733
-547
-254
-246
-389
-185
-103
-261
-307
-214
-114
-106
-124
-280
-378
-205
-114
-226
-196
-52
-133
-260
-163
-90
-118
-1
55
-89
-4
212
159
-12
11
137
65
138
171
-97
87
446
312
229
439
392
319
408
500
618
479
509
821
827
800
856
792
870
893
631
632
724
491
360
344
128
-24
9
15
-155
-169
-45
-247
-327
-267
-253
-288
-384
-253
-182
-226
-185
-324
-256
-172
-384
-318
-230
-301
-332
-233
-77
-190
-392
-258
-225
-385
-222
-230
-358
-118
-101
-320
-373
-174
-160
-452
-290
-113
-442
-441
-133
-284
-331
-81
-188
-368
-255
-198
-435
-338
-127
-345
-446
-313
-190
-226
-151
36
-113
-324
-148
52
75
141
128
-31
-31
-88
-353
-208
-91
-260
-210
-167
-345
-426
-251
-195
-337
-502
-392
-272
-405
-271
-187
-241
-253
-529
-695
-51
1244
2287
3074
3187
1440
-557
-896
-526
-429
-290
-71
-247
-310
-52
-129
-200
-60
-240
-381
-160
1
-320
-577
-92
-56
-335
3
116
-140
-189
-145
-201
-181
67
128
-35
47
-69
-177
86
167
36
127
279
94
107
202
191
313
374
349
364
522
602
610
590
711
747
635
696
804
826
639
770
887
485
452
596
287
-13
11
-26
-126
-47
-91
-246
-101
-67
-343
-355
-213
-226
-188
-116
-288
-450
-262
-132
-374
-267
-141
-327
-317
-172
-181
-332
-285
-178
-160
-259
-241
-93
-166
-230
-250
-319
-310
-284
-234
-281
-271
-284
-325
-168
-173
-315
-277
-308
-309
-178
-373
-417
-343
-375
-232
-340
-288
-57
-224
-322
-215
-146
-242
-337
-192
-66
-44
-10
-205
-298
59
161
44
119
27
-73
95
-28
-314
-258
-127
-239
-537
-342
-63
-292
-648
-582
-156
-147
-251
-298
-403
-295
-309
-613
-662
-127
823
2010
3082
3177
1732
-144
-804
-644
-452
-255
-275
-293
-163
-192
-378
-262
-65
-180
-282
-290
-275
-177
-74
-55
-95
-150
-162
-179
-189
-134
-148
-199
-10
26
-96
68
95
-61
44
2
-131
26
96
214
50
-58
328
291
320
468
259
266
484
562
571
750
711
608
823
862
685
773
901
712
585
657
606
444
403
162
-16
92
-39
-166
-394
-350
-55
-229
-115
-70
-347
-265
-255
-388
-324
-160
-285
-299
-137
-281
-307
-264
-337
-345
-347
-117
-24
-316
-331
-174
-271
-314
-190
-251
-301
-186
-220
-397
-263
-20
-190
-360
-209
-264
-361
-277
-283
-248
-176
-238
-339
-364
-244
-180
-204
-132
-255
-437
-290
-149
-357
-227
-88
-301
-221
-179
-241
-255
-169
-149
-194
65
242
-19
-269
-5
5
-262
-143
-183
-432
-340
-201
-327
-389
-316
-404
-565
-323
-165
-336
-347
-338
-330
-327
-415
-434
-431
16
1211
2243
3045
3332
1403
-774
-759
-274
-459
-348
55
-93
-179
17
-276
-437
-110
-174
-189
-72
-139
-145
-201
-155
-157
-181
-46
-63
-232
-147
113
34
-99
-76
-64
13
-174
-157
183
98
94
185
21
126
86
-51
260
252
93
286
434
399
284
495
719
529
622
585
352
679
807
577
723
723
446
380
449
429
162
68
159
-24
-152
-21
-208
-426
-200
-302
-450
-214
-225
-300
-261
-299
-351
-414
-450
-316
-422
-293
-118
-531
-373
-131
-418
-455
-325
-219
-256
-398
-280
-197
-264
-179
-357
-484
-280
-342
-461
-289
-306
-567
-486
-212
-289
-418
-235
-241
-568
-422
30
-209
-481
-222
-325
-521
-277
-345
-496
-352
-430
-455
-387
-450
-326
-272
-344
-300
-300
-296
-65
-6
-132
1
-11
-116
-54
-313
-307
156
-46
-520
-550
-365
-377
-473
-542
-424
-292
-366
-407
-636
-476
-17
-184
-542
-382
-291
-585
-502
201
1294
2444
3230
2761
740
-794
-796
-431
-322
-337
-319
-421
-338
-197
-311
-261
-213
-255
-97
-83
-294
-261
-42
-206
-461
-301
-186
-324
-168
149
113
46
55
-191
-271
137
146
-59
177
164
26
127
192
158
170
415
244
-87
340
671
647
623
555
659
699
671
678
786
925
816
808
984
959
971
1036
954
743
572
529
388
272
297
172
-4
1
64
-118
-334
-406
-438
-169
59
45
25
-41
-107
-69
-92
-99
-108
-198
-43
34
-74
54
67
-43
60
157
204
129
89
293
316
137
254
271
54
78
164
282
397
423
311
79
39
90
81
126
180
189
73
61
29
32
53
103
195
121
256
52
-20
334
174
70
394
569
470
555
677
405
401
612
575
628
789
737
548
655
721
441
394
577
455
191
138
195
201
75
47
86
113
269
240
212
385
271
-140
-172
252
908
1952
3009
3334
2426
791
-205
-248
-4
291
210
-28
185
51
-194
139
343
94
-113
-36
14
-85
50
179
96
-138
-302
-63
-12
-55
-10
-155
-252
-170
-146
-202
-71
-49
-281
-247
-86
-143
-108
-21
-161
-195
-49
-204
-135
179
16
-43
278
334
122
256
404
313
316
299
382
492
548
530
411
400
265
-8
20
160
-79
-236
-281
-426
-373
-311
-259
-216
-196
-202
-535
-719
-424
-442
-460
-325
-409
-570
-496
-214
-440
-596
-592
-689
-573
-531
-666
-783
-678
-553
-618
-669
-583
-594
-674
-760
-843
-792
-729
-632
-722
-867
-656
-735
-966
-669
-617
-923
-816
-715
-807
-910
-875
-582
-613
-624
-639
-867
-702
-661
-969
-844
-647
-810
-897
-744
-641
-736
-561
-481
-651
-380
-424
-741
-504
-378
-555
-777
-778
-618
-676
-788
-785
-853
-859
-638
-576
-614
-727
-783
-694
-798
-647
-778
-1146
-743
-624
-356
990
2024
2523
2107
199
-1118
-1038
-716
-764
-858
-550
-429
-517
-485
-471
-519
-561
-279
-135
-490
-523
-243
-436
-564
-260
-269
-274
-100
-146
-280
-109
134
-211
-195
192
24
-216
-23
364
207
27
228
341
127
148
353
122
325
697
574
638
689
486
522
739
751
579
684
918
983
1065
1100
864
715
904
737
571
590
549
494
369
497
267
54
269
91
-155
-292
-402
-173
-96
-82
-17
-45
-178
-542
-564
-327
-384
-665
-679
-431
-642
-695
-390
-588
-601
-583
-684
-614
-882
-828
-676
-716
-472
-521
-679
-487
-473
-802
-656
-408
-590
-747
-809
-578
-479
-358
-318
-555
-335
-353
-454
-248
-273
-174
-197
-196
-42
-137
-97
-132
-243
-299
-280
-37
-198
-426
-163
57
112
167
185
153
148
153
-32
-208
-197
-212
-215
-234
-217
-161
-98
-209
-313
-19
-14
-274
-45
220
342
458
368
332
295
668
1623
2463
3272
3406
1732
-158
-485
-313
-257
-56
-32
-45
77
84
-108
-159
-70
-62
-168
-165
-87
-480
-499
-137
-284
-359
-169
-212
-289
-89
-92
-338
-231
-225
-428
-252
-70
-138
-375
-369
-197
-172
-55
-37
-256
-203
85
71
2
154
267
270
308
387
376
412
534
457
576
816
667
663
927
907
709
764
708
433
487
410
30
49
198
74
52
76
135
-40
-233
35
-32
-186
-86
-62
-241
-471
-193
-49
-176
53
33
-202
38
72
-103
-45
106
119
-246
-178
132
-8
-70
26
-73
-72
1
-222
-231
-95
-275
-289
-101
-167
-218
-206
-257
-274
-375
-376
-367
-488
-407
-178
-401
-571
-411
-740
-587
-143
-371
-481
-369
-370
-392
-292
-173
-165
-212
-133
-327
-474
-43
188
112
100
162
68
-109
-111
-213
-442
-253
-55
-298
-251
-110
-175
-206
-137
-17
-227
-326
-173
-414
-395
-46
-268
-420
197
1317
2359
3222
3303
1532
-271
-438
-294
-285
-94
19
-57
-181
-165
-149
-178
-69
-41
-173
-10
112
55
15
-105
-92
58
189
116
41
79
-112
-1
217
153
235
126
69
186
221
339
316
222
182
230
373
304
346
552
563
601
629
579
665
776
818
817
861
973
918
874
1027
982
957
1050
906
851
842
521
549
522
181
286
373
187
29
80
166
69
-34
-6
79
-49
-105
80
18
-29
70
42
72
198
75
-135
-30
35
-222
-192
164
8
-247
-95
-88
-172
-112
-73
-172
-208
-114
-193
-219
3
-140
-405
-48
29
-269
-116
-18
-169
-276
-134
-122
-363
-197
49
-205
-373
-14
-92
-325
-26
2
-161
-162
-130
-183
-222
-176
-151
-114
-240
-334
-207
65
179
40
69
149
-52
-174
-56
-143
-313
-326
-382
-466
-273
-58
-208
-328
-203
-293
-464
-260
-173
-353
-221
-48
-495
-904
-246
994
1944
2885
3543
2342
324
-443
-670
-534
71
77
-205
-111
82
-55
-171
-3
-19
-97
-65
-60
-82
-112
-115
48
59
-137
17
265
150
-116
-18
116
174
185
-15
154
145
-37
127
103
54
209
183
87
236
363
217
181
359
479
424
417
629
681
460
524
703
728
831
727
610
778
989
961
613
379
566
413
219
389
73
-139
-8
-180
-195
-110
-226
-144
-32
-247
-328
-178
-179
-249
-327
-249
-244
-291
-247
-322
-333
-261
-265
-196
-114
-212
-277
-297
-124
19
-229
-244
-224
-500
-455
-209
-177
-290
-243
-115
-354
-454
-195
-176
-276
-254
-316
-311
-110
-218
-353
-288
-303
-335
-365
-213
-392
-522
-188
-283
-245
-117
-167
-67
-82
-23
-94
-194
-54
-46
-91
-34
-110
-154
-76
-92
-96
-158
-164
-222
-375
-275
-229
-441
-328
-121
-587
-640
-136
-105
-195
-264
-285
-250
-353
-496
-464
273
1118
1826
2977
2822
847
-671
-804
-443
-302
-272
-186
-184
-194
-84
-71
-205
-327
-168
-73
-318
-265
-117
-178
-199
-204
-225
-212
-33
-125
-285
-121
-81
-60
-23
-83
-204
-137
66
-41
-14
261
208
97
122
154
197
54
112
247
223
439
527
471
593
593
595
677
679
688
660
754
837
854
795
512
275
398
597
332
-55
93
252
-95
-180
-69
-340
-280
-74
-285
-332
-227
-161
-243
-303
-238
-310
-238
-125
-198
-313
-222
-146
-263
-116
-59
-277
-312
-190
-172
-330
-229
-81
-273
-425
-369
-197
-12
-417
-785
-514
-341
-324
-530
-400
-114
-338
-434
-242
-252
-301
-130
-120
-253
-345
-220
22
-133
-322
-148
-95
-225
-210
-264
-347
-133
-10
10
-151
-311
0
113
69
174
105
-23
-133
-144
2
-62
-291
-260
-138
-285
-217
-54
-369
-597
-385
-167
-172
-101
-83
-237
-214
-250
-531
-508
-260
254
1649
2722
3137
2604
697
-452
-548
-432
-156
-151
-209
-8
-132
-295
-40
-105
-402
-212
128
4
-149
-76
-114
-201
-272
-108
103
-75
-16
71
-150
91
211
-86
41
30
-87
173
227
-31
49
368
331
268
245
231
251
359
561
467
235
422
655
563
691
903
852
781
960
914
731
912
1021
964
743
669
719
491
415
278
30
101
79
-65
-69
-10
-165
-220
-23
-110
-170
-152
-205
-207
-249
-107
-97
-346
-267
-70
-94
-98
-181
-358
-96
112
-281
-414
-45
-41
-273
-52
46
-200
-156
-172
-209
-149
-98
-143
-375
-126
60
-294
-310
-35
-122
-198
-150
-221
-337
-253
-105
-306
-233
-51
-233
-230
-96
-146
-238
-69
-58
-251
-161
-183
-317
-221
29
64
-33
34
68
50
71
35
-93
-155
-167
-163
-171
-141
-128
-315
-324
-226
-282
-274
-200
-224
-319
-319
-285
-378
-392
-234
-331
-638
-457
573
1898
2831
3285
2669
701
-765
-659
-151
-173
-362
-191
28
-26
-204
-190
-58
28
-52
-190
-65
-184
-133
180
24
-68
-56
-164
-5
169
24
-15
119
68
-26
65
39
-102
-13
65
216
263
215
257
154
305
373
279
375
518
519
508
588
652
590
624
725
715
915
1015
926
912
911
924
960
890
790
624
353
391
403
161
235
166
-224
-207
-91
-313
-357
-97
7
-126
-137
-214
-295
-76
-205
-313
-195
-178
-249
-361
-166
-143
-290
-195
47
23
-249
-192
-195
-340
-180
-110
-235
-249
-187
-253
-300
-194
-294
-391
-181
-213
-464
-366
-113
-207
-294
-235
-256
-260
-215
-246
-425
-412
-273
-258
-176
-124
-278
-258
-138
-201
-196
-207
-295
-318
-398
-355
-156
-32
-194
-248
-43
-24
55
-43
-134
120
34
-166
-105
-221
-386
-373
-320
-253
-267
-303
-334
-352
-275
-196
-276
-344
-128
-104
-192
-238
-629
-723
27
1193
2230
2981
2931
1322
-422
-673
-519
-469
-117
-86
-198
-64
-17
-229
-338
39
-16
-358
-67
-41
-234
-59
28
-33
-146
-96
72
39
61
143
15
-31
73
94
80
96
-33
-97
128
267
272
194
104
91
172
390
436
372
330
439
506
377
528
728
618
451
752
980
866
872
868
961
829
571
754
723
531
429
226
252
166
69
130
42
-99
-175
-240
-228
-97
3
-209
-341
-119
-356
-325
-63
-186
-77
-18
-152
-342
-244
-44
-212
-286
-195
-129
-181
-235
-117
-187
-196
-92
-137
-117
-211
-273
-234
-210
-189
-220
-207
-179
-294
-417
-337
-276
-189
-124
-246
-273
-196
-193
-350
-400
-166
-89
-321
-319
-153
-224
-270
-248
-248
-277
-174
-127
-200
-20
-33
-122
31
78
-103
-168
-42
-124
-245
-409
-417
-439
-681
-508
-271
-247
-241
-201
-293
-393
-349
-372
-309
-241
-285
-413
-548
-394
349
1616
2737
3102
2235
451
-794
-736
-292
-203
-181
-83
-27
-157
-259
-100
-38
-205
-190
-159
-209
-79
-20
-60
-65
5
0
-179
-107
47
-6
3
109
48
50
239
90
-132
6
208
109
78
287
231
180
353
127
162
574
509
465
638
629
317
444
814
905
1019
1027
843
705
745
929
1351
1215
778
756
620
457
649
577
109
-15
-41
-65
22
-102
-328
-113
-10
-360
-270
-323
-401
-73
-245
-356
-157
-155
-231
-344
-356
-53
-301
-493
-380
-911
-388
61
-323
-150
-56
-276
-399
-232
-159
-63
-51
-89
-11
-306
-198
287
305
30
-94
-42
-256
-184
117
41
72
232
-107
-265
387
377
-186
-262
-189
228
299
-42
-34
-103
-83
-26
-248
-549
-588
-52
431
357
438
234
-346
-101
41
-121
-285
-711
4
482
-239
-444
-302
-319
-372
-269
-249
-493
-550
-407
-475
-435
-351
-470
-429
-410
-460
-550
-267
679
1293
2334
3645
2291
-216
-956
-882
-536
-364
-543
-344
-140
-28
-212
-387
-105
-128
-295
-318
-313
-349
-106
430
-214
-799
-283
-47
-32
-90
-216
-230
-135
-143
-161
-7
-5
-16
171
177
22
94
440
345
-44
389
726
207
46
206
404
598
479
614
699
685
838
846
865
825
790
855
936
1104
1094
852
863
719
386
440
430
103
186
482
118
-301
-109
-25
-236
-153
-105
-205
-203
-71
-47
-201
-117
-36
-217
-111
88
-195
-293
-238
-259
-64
-117
-389
-228
23
-92
-274
-340
-191
-130
-235
-251
-224
-237
-268
-248
-296
-400
-185
-275
-442
-202
-227
-290
-346
-304
-166
-215
-326
-491
-462
-215
-289
-391
-294
-322
-323
-366
-369
-414
-354
-130
-150
-138
-125
-262
-251
-87
-47
-82
-81
-119
23
82
-167
-72
-59
-345
-237
-219
-382
-276
-300
-399
-297
-226
-375
-384
-197
-238
-336
-263
-159
-289
-671
-664
-330
376
1625
2502
3063
2703
702
-842
-771
-397
-363
-272
-59
-115
-176
-179
-408
-394
-174
-139
-146
-143
-240
-240
-201
-105
-64
-313
-334
-203
-107
27
-76
-182
-127
15
110
-47
-64
-13
-83
6
40
69
0
93
238
-25
150
427
283
260
429
441
284
431
673
572
597
809
702
642
809
831
581
580
716
514
513
385
152
90
34
15
-129
-206
-282
-240
-130
-259
-298
-246
-350
-429
-353
-213
-245
-229
-200
-486
-541
-313
-217
-323
-289
-259
-470
-430
-202
-86
-242
-377
-366
-470
-411
-195
-197
-306
-310
-342
-291
-173
-321
-409
-403
-391
-289
-264
-273
-301
-402
-389
-185
-186
-406
-314
-251
-508
-421
-326
-298
-232
-260
-243
-434
-478
-270
-324
-335
-156
-188
-137
51
-243
-468
-19
138
-69
-103
0
-12
-202
-235
-425
-430
-115
-208
-395
-452
-439
-296
-309
-399
-294
-274
-296
-323
-420
-338
-406
-662
-449
644
1901
2707
3157
2137
-2
-757
-540
-492
-401
-202
-9
-241
-327
-99
-277
-317
-24
-109
-241
-181
-167
-166
-108
-78
-174
-225
-172
-6
14
-100
34
22
-63
-48
-80
172
368
9
-94
162
119
39
132
175
163
320
272
-33
192
512
448
441
408
664
700
638
997
705
531
827
647
732
1009
899
614
483
622
443
252
287
123
2
9
-119
-360
-373
-210
-227
-301
-296
-390
-394
-129
-54
-304
-289
-137
-229
-207
-178
-168
-190
-316
-288
-282
-293
-192
-115
-7
175
-11
-367
-256
-112
-225
-185
-49
-214
-343
-150
-274
-410
-177
-147
-260
-125
-179
-477
-414
-269
-260
-297
-146
-51
-207
-241
-189
-170
-206
-153
-169
-465
-405
-246
-257
-153
-300
-458
-463
-262
-10
-126
-203
-121
-144
-1
93
-75
-133
-137
-53
-128
-321
-356
-519
-299
-96
-328
-403
-540
-563
-407
-217
-196
-557
-437
-139
-284
-286
-332
-526
-59
1178
2508
3329
3083
1418
-363
-806
-527
-231
-151
-123
36
-36
-196
-165
-124
-231
-181
-91
-177
-143
-13
-2
-169
-105
-22
24
183
6
-246
-109
146
-8
-6
187
-34
-123
204
237
30
129
142
207
423
207
85
349
385
369
350
400
630
552
504
633
614
691
831
805
791
938
962
812
758
848
720
596
599
338
216
269
17
-238
-47
117
-146
-232
-157
-362
-329
-153
-191
-144
-197
-303
-226
-296
-304
-231
-231
-100
-152
-405
-418
-268
-178
-161
-65
-127
-349
-97
17
-202
-183
-130
-298
-311
-167
-354
-372
-275
-292
-224
-177
-290
-332
-205
-260
-297
-228
-263
-379
-380
-201
-234
-421
-287
-179
-366
-436
-354
-189
-206
-434
-346
-123
-249
-308
-150
-318
-278
-98
-185
129
271
-110
-107
-48
-176
-30
-18
-244
-364
-403
-320
-373
-394
-270
-525
-510
-157
-217
-272
-146
-178
-422
-503
-177
-315
-804
-485
504
1488
2356
3069
2436
391
-633
-530
-481
-156
14
-179
-291
-139
35
-109
-193
-184
-186
-183
-101
-35
-155
-90
-110
-157
-96
-195
-29
109
152
81
-208
-152
-40
81
220
0
-81
128
111
13
91
188
131
172
372
268
95
305
484
498
619
554
438
502
682
618
562
929
931
540
889
1121
490
515
821
527
269
333
238
49
153
168
-50
-242
-209
-228
-315
-98
-185
-343
-139
-186
-212
-137
-219
-263
-324
-201
-50
-259
-392
-333
-198
-196
-213
-13
30
-136
-226
-297
-269
-131
-169
-121
40
-245
-546
-271
-123
-183
-125
-24
-101
-335
-370
-384
-266
-45
-39
-67
-15
43
-255
-350
162
68
-184
5
-190
20
447
516
628
569
673
786
705
899
1133
998
1183
1562
1514
1477
1625
1244
936
1359
1617
1880
1659
1446
1448
1245
1632
1564
1102
1243
1280
739
644
1578
1570
242
-91
150
668
1949
2651
3103
3256
1771
174
499
594
-392
-123
599
553
410
169
69
-3
193
788
495
-202
-249
210
451
453
610
618
642
634
389
251
707
930
579
435
178
413
691
265
42
112
304
367
48
-219
462
775
-40
-129
209
263
518
463
272
636
398
164
832
573
-39
251
554
545
422
332
703
1350
655
-370
-217
-250
-94
562
-40
-213
671
463
-135
-554
-138
16
-511
-375
-635
-576
-43
-496
-835
-123
529
346
250
564
228
19
157
66
133
268
504
206
-388
-368
-510
-642
-59
-235
-530
282
21
-829
-671
-759
-579
337
89
-867
-945
-107
-241
-1168
-911
-613
-294
-278
-1127
-1224
-878
-971
-1159
-187
233
-1287
-1328
-525
-1057
-1131
-608
-536
-740
-802
-280
-482
-953
-607
-730
-769
-285
-161
-1011
-1418
-455
-462
-1021
-1040
-1111
-630
-892
-1334
-897
-1019
-1120
-874
-688
-1060
-1400
-1063
-872
-978
-1010
-935
-691
466
2023
2588
1963
314
-592
-589
-1340
-1396
-724
-308
-540
-1195
-1036
-898
-1016
-678
-509
-671
-514
-347
-634
-911
-744
-777
-287
278
-1058
-1531
-742
-909
-819
-320
-659
-949
-946
-1068
-805
-843
-1100
-734
-483
-860
-689
-617
-1083
-807
-448
-558
-592
-332
-114
-83
-385
-645
-442
-213
-112
-102
38
159
89
182
17
-472
-505
-308
-257
-427
-691
-677
-574
-642
-875
-969
-749
-552
-822
-1140
-954
-1043
-1168
-680
-504
-734
-822
-724
-651
-762
-821
-780
-673
-712
-885
-895
-810
-678
-448
-340
-512
-556
-593
-546
-403
-472
-395
-480
-706
-728
-870
-1017
-1032
-1208
-1201
-659
-627
-1078
-921
-681
-673
-718
-845
-874
-812
-824
-929
-948
-910
-766
-679
-747
-916
-952
-665
-633
-604
-404
-404
-489
-461
-337
-362
-297
-175
-308
-314
-295
-506
-614
-512
-256
-197
-422
-561
-537
-480
-503
-526
-510
-497
-476
-406
-515
-714
-709
-573
-409
-534
54
1497
2427
2876
2132
269
-867
-893
-467
-304
-423
-245
-99
-205
-286
-437
-266
-89
-312
-387
-277
-142
-89
-202
-155
-12
23
80
50
98
-75
-127
137
112
111
143
74
125
300
199
97
235
198
215
266
321
469
344
344
427
351
552
650
535
757
910
755
628
844
1045
861
1021
1059
875
898
727
811
812
605
490
195
132
226
209
157
124
92
-21
-310
-284
-33
-80
-194
-271
-244
-186
-285
-213
-53
-161
-257
-100
-24
-220
-147
126
2
-211
-132
-88
-145
-92
-169
-247
-111
-20
-147
-309
-234
-85
-43
-73
-98
-135
-229
-232
-201
-86
0
-215
-311
-206
24
6
-151
-32
-163
-318
-117
38
-110
-189
43
-78
-240
41
-117
-281
216
517
194
95
171
-45
-33
24
-212
-18
164
-216
-527
-463
-113
-65
-222
-239
-259
-260
4
288
-159
-470
-280
-318
-262
58
1008
2180
2927
3011
1623
-81
-529
-406
-294
-144
74
0
-141
-22
-50
17
138
7
-89
139
213
-13
75
222
114
59
29
-35
168
287
16
106
359
302
201
195
102
126
261
240
388
345
249
427
383
322
466
446
337
689
693
374
697
722
649
881
872
866
970
1153
1168
934
925
1033
743
528
689
606
522
605
422
238
65
29
79
-164
-159
30
-39
-115
-223
-262
-106
-113
-217
-115
-51
-132
-198
-121
-33
-28
13
43
73
48
-69
-67
48
-28
-166
-215
-84
61
-121
-117
17
-123
-65
122
-10
-264
-191
-23
-3
-153
-273
-222
-289
-150
-43
-143
-71
-12
-149
-218
-115
-212
-224
-97
-145
-257
-276
-70
-7
-87
54
-115
-121
384
204
31
339
302
50
-116
-134
-119
-228
-192
-50
-118
-158
-238
-342
-221
-108
-421
-526
-145
-40
-176
-243
-280
-299
-299
-61
933
2095
2962
3314
2005
-111
-612
-2
3
-167
-109
-45
-42
-245
-47
182
-300
-309
15
-37
-4
11
30
38
13
19
-91
-144
92
264
69
22
-30
-282
10
334
148
38
68
39
114
284
282
159
165
220
207
307
500
559
420
446
553
568
741
746
673
699
689
918
1089
991
927
876
815
737
703
589
392
262
147
71
-37
-32
-24
-64
-51
-195
-35
-83
-388
-229
-80
-230
-272
-76
-248
-358
-138
-160
-217
-200
-147
-191
-402
-190
26
-252
-236
-21
-198
-363
-105
84
-140
-278
-190
-282
-342
-183
-230
-290
21
17
-386
-122
43
-219
-218
-243
-228
-331
-224
-88
-326
-172
-120
-288
-195
-238
-182
-6
-35
-213
-302
-123
33
-71
-9
282
233
-8
54
8
-28
132
137
-158
-360
-128
-272
-440
-88
-2
-203
-244
-274
-330
-225
-134
-362
-447
-231
-210
-356
-420
-370
-92
914
2035
2935
3435
1937
-155
-659
-537
-367
-67
20
-207
-476
-363
-52
63
98
132
50
-105
-39
63
-168
-258
-6
85
-81
-51
22
-209
-164
311
189
-50
210
229
22
14
196
108
57
154
-71
-12
272
213
208
339
475
440
566
691
369
360
679
804
747
744
710
537
821
1088
818
819
878
712
543
447
352
186
181
170
123
-46
-108
-72
-225
-342
-326
-191
-242
-281
-12
-112
-333
-217
-273
-201
-91
-359
-320
-175
-406
-277
33
-53
-273
-238
-184
-298
-163
-98
-251
-181
-109
-192
-155
-160
-253
-153
-197
-383
-421
-293
-145
-295
-220
-36
-191
-217
-169
-155
-180
-153
-192
-364
-448
-287
-151
-284
-118
111
-30
-217
-87
88
33
246
279
-167
-260
-37
82
-81
-359
-306
-147
-228
-334
-227
-99
-211
-355
-316
-365
-354
-174
-196
-260
-275
-254
-248
-314
255
1534
2531
3068
2620
871
-601
-546
14
-86
-233
117
181
-61
-98
-31
-48
-110
179
182
-33
220
423
-18
-119
480
239
-442
-342
-330
-602
-366
-246
-360
-99
259
117
-12
545
719
358
481
720
919
852
538
661
716
720
877
978
1266
1212
390
753
2125
1303
500
1143
929
650
823
1088
1261
1093
1026
1052
1067
1282
655
-60
503
753
400
298
-48
33
486
162
-362
-440
-77
-150
-218
336
98
-517
-115
156
-622
-706
247
-65
-944
-731
-555
-354
147
-169
-587
-329
-55
-65
-634
-622
49
-340
-510
19
-501
-915
-654
-230
79
-453
-709
-606
-515
-59
-451
-916
-631
-63
370
-494
-1036
-695
-251
320
-152
-996
-947
-464
-237
-288
-148
2
-467
-461
209
-142
-238
171
-15
-64
-75
-367
-486
-338
-398
-127
188
-436
-474
-117
-436
-538
97
284
-553
-771
-379
-262
-394
-716
-367
1041
1894
2267
2868
1971
134
-222
1
-260
-374
-550
-97
254
-526
-559
-107
-192
-363
-201
120
-168
-406
-183
-52
121
180
-253
-470
-387
-431
-264
131
278
-64
-41
490
202
-651
-747
-7
-8
-218
353
168
-233
-101
-30
30
364
576
418
443
450
505
659
636
869
768
567
758
649
818
1330
1185
695
584
602
541
630
644
604
441
-29
-318
-341
-574
-736
-671
-684
-585
-644
-1043
-975
-592
-705
-842
-715
-510
-489
-560
-589
-748
-732
-918
-917
-510
-728
-921
-555
-556
-821
-701
-576
-894
-897
-538
-741
-905
-469
-273
-595
-571
-310
-300
-354
-324
-246
-373
-562
-501
-394
-293
-363
-441
-341
-454
-488
-655
-664
-428
-587
-380
-136
-290
-554
-468
-114
-219
-241
-201
-363
-368
-367
-323
-420
-537
-392
-471
-444
-303
-437
-554
-478
-520
-565
-425
-539
-595
-454
-511
-573
-666
-668
-653
-546
327
1320
2019
2766
2095
2
-954
-745
-673
-682
-386
-349
-482
-256
-251
-367
-393
-279
-122
-280
-317
-137
-233
-319
-114
-143
-138
-71
-211
-92
-45
-187
-15
130
114
68
-104
-153
-29
233
344
155
62
57
92
122
179
255
231
456
514
246
306
616
615
468
510
575
795
835
772
763
747
911
809
729
687
610
517
122
132
304
281
195
-82
-79
-79
-109
-179
-489
-200
32
-255
-151
-3
-336
-301
14
-87
-199
-123
-174
-359
-183
-47
-31
73
-11
-134
-170
-62
-258
-317
-29
-43
-63
-37
-91
-54
-235
-296
81
-71
-319
-104
-238
-228
4
-206
-325
-97
-91
-276
-181
-138
-240
-110
-77
-85
-145
-338
-153
-29
-20
130
188
-9
-38
42
-126
75
175
-53
-171
-133
-185
-284
-319
-359
-119
-52
-89
-264
-453
-157
-66
-225
-235
-146
-178
-193
-307
-626
-177
1099
2184
2811
2990
1917
153
-498
-312
-266
-246
-64
-64
-177
22
8
-147
59
158
-72
-193
-40
-16
93
208
-43
-62
96
131
34
-34
197
143
37
208
122
126
177
74
54
132
331
374
201
237
351
262
229
304
345
366
568
632
632
844
727
602
936
1071
855
789
945
1053
951
911
908
769
738
660
328
240
395
201
45
326
399
-224
-374
49
-129
-127
35
-224
-60
44
-309
-288
-38
156
122
-194
-282
-190
-45
-27
-201
-216
-180
-39
21
-44
131
73
-269
-114
-37
-227
-160
-174
-107
60
6
-113
-213
-146
-55
-200
2
66
-134
-65
-63
-187
-212
-40
-115
-289
-24
9
-266
-57
107
-176
-201
-60
-80
-82
35
117
16
101
158
-22
-71
127
155
-111
-199
-223
-327
-245
-45
-145
-293
-133
-84
-98
-130
-177
-75
-124
-256
-276
-289
-183
-134
-351
-166
1085
2358
3022
3279
1891
-177
-545
-190
-198
14
93
26
9
-202
-187
156
278
82
12
247
329
33
-20
262
89
6
488
294
6
384
388
206
238
267
516
758
792
658
442
622
707
513
723
740
453
625
748
696
750
663
570
582
774
880
817
907
913
702
640
939
902
727
850
840
721
615
557
451
430
487
161
-262
-139
-19
-316
-182
88
-487
-774
-283
-98
-315
-480
-514
-403
-450
-597
-536
-534
-457
-398
-546
-523
-308
-403
-467
-283
-340
-502
-478
-351
-353
-335
-314
-397
-307
-318
-572
-555
-425
-399
-424
-412
-426
-617
-507
-332
-376
-434
-605
-445
-263
-274
-338
-510
-446
-296
-455
-593
-336
-353
-443
-303
-459
-433
-117
-74
-162
-161
-82
-136
-276
-326
-345
-342
-365
-419
-357
-398
-399
-343
-595
-600
-401
-539
-599
-352
-204
-345
-392
-405
-686
-655
-260
489
1843
2881
3065
2098
295
-739
-724
-433
-225
-217
-247
-160
-239
-361
-280
-238
-351
-321
4
53
-73
-149
-387
-256
103
-12
-203
-18
-81
-289
-79
91
22
-84
-46
-1
-58
-10
10
-43
83
241
-46
-61
129
211
340
324
516
442
282
404
577
608
549
712
715
657
801
842
760
869
910
576
648
550
189
511
462
121
136
65
-70
-216
-121
-30
-183
-149
-109
-279
-394
-227
-202
-267
-84
-185
-361
-143
-112
-319
-267
-98
-164
-390
-342
-313
-217
-72
-110
-215
-299
-189
-254
-177
-67
-157
-77
82
-136
-346
-244
-315
-374
-247
-81
-263
-257
-46
-99
-139
-267
-253
-95
-113
-249
-239
-378
-353
-71
-308
-389
-411
-419
-96
-9
85
-32
-137
-20
-20
160
165
44
60
-6
-210
-399
-375
-136
-77
-282
-163
-96
-366
-319
-169
-170
-195
-175
-207
-461
-223
-33
-386
-286
152
805
1827
2921
3398
2197
141
-680
-477
-234
48
40
-20
14
-294
-305
-141
-283
-203
-64
-42
-115
-91
24
-64
-96
-27
-114
-140
12
-77
-133
137
44
-75
31
-113
-106
-26
57
100
-110
-31
118
41
65
144
315
308
220
350
225
302
462
237
314
496
416
483
781
646
285
427
616
518
494
374
322
373
127
23
-204
-448
-45
-43
-414
-305
-405
-484
-234
-283
-403
-342
-224
-220
-361
-205
-208
-494
-225
89
-149
-241
-14
-45
-164
-44
-96
-335
-147
-58
-250
-197
-396
-569
-281
-26
-227
-373
-193
-153
-331
-344
-110
-111
-177
-180
-205
-199
-378
-549
-393
-200
-312
-418
-280
-253
-250
-289
-637
-610
-415
-229
17
-198
-197
26
-1
-87
-131
-78
-227
-293
-63
-182
-379
-204
-106
-170
-142
-125
-130
-152
-154
-217
-225
-156
-126
-203
-267
-152
-364
136
1641
2425
2837
2878
1136
-522
-448
-58
-144
-162
89
34
-117
41
92
-97
-60
214
-24
-284
23
67
-60
18
-143
-231
-44
0
-23
-180
-152
52
56
196
220
98
136
106
-33
54
166
63
82
303
489
326
228
313
164
185
452
351
223
583
676
435
519
607
468
722
966
709
809
984
707
514
467
333
244
353
356
25
-256
-144
-37
-219
-275
-181
-273
-403
-416
-424
-479
-507
-733
-1037
-879
-836
-984
-728
-528
-678
-491
-252
-516
-668
-591
-481
-499
-483
-312
-298
-325
-350
-451
-515
-511
-357
-417
-602
-297
-262
-468
-262
-172
-494
-653
-512
-541
-474
-474
-498
-458
-628
-703
-551
-409
-549
-627
-429
-265
-294
-357
-295
-290
-249
-222
-389
-322
-112
-171
-388
-399
-273
-387
-567
-557
-506
-454
-397
-417
-583
-754
-521
-434
-567
-357
-499
-888
-745
-489
-455
-303
525
1954
2956
3133
1997
-61
-887
-403
-196
-261
-120
-139
-196
-4
31
-132
-175
-140
-76
-26
-19
144
43
-126
97
-62
-1
194
-26
219
367
281
161
131
458
332
166
310
80
47
351
524
400
376
712
595
488
728
600
512
702
895
759
754
955
881
838
867
877
766
973
1051
786
907
844
521
636
637
333
318
158
14
132
64
103
129
-44
-80
-215
-236
-14
-76
-178
-33
14
-172
-270
-278
-383
-417
-468
-595
-371
-373
-590
-538
-495
-418
-382
-347
-309
-449
-487
-320
-278
-293
-359
-306
-120
-322
-319
-19
-225
-419
-210
-158
-318
-355
-277
-264
-249
-149
-282
-372
-160
-195
-320
-90
-141
-513
-333
-200
-358
-267
-157
-153
-70
-91
-149
-31
-75
-127
-280
-487
-391
-419
-410
-139
-98
-297
-295
-224
-209
-59
-72
-286
-228
58
-72
-468
-523
-214
604
1760
2757
3239
2347
575
-451
-520
-258
72
75
-7
186
54
-63
127
104
57
243
356
236
317
388
321
502
399
308
359
281
333
412
462
523
425
212
321
265
8
173
149
-97
31
111
-40
-89
-73
-120
-141
164
199
28
265
223
63
175
295
351
389
509
411
434
796
733
466
445
525
488
296
206
227
98
-18
-83
-285
-456
-385
-163
-300
-564
-332
-7
-184
-523
-435
-233
-238
-142
-199
-305
-173
-251
-382
-246
-160
-201
-145
-115
-113
-163
-232
-145
-199
-328
-198
-216
-396
-330
-254
-177
-157
-249
-257
-196
-194
-306
-337
-193
-161
-170
-125
-222
-186
-181
-325
-333
-339
-358
-149
69
56
71
9
43
126
-165
-64
29
-250
-84
-126
-479
-400
-183
-317
-399
-260
-257
-306
-309
-199
-390
-542
-120
-311
-472
-162
-357
-437
62
988
1989
2783
2691
1119
-536
-866
-476
-384
-412
-268
-269
-219
14
-194
-587
-396
-280
-283
-93
-109
-164
-117
-44
-41
-156
-199
-89
-70
-65
44
-33
-89
43
22
39
109
47
46
197
245
117
122
245
185
70
250
411
292
286
452
463
438
611
703
533
462
535
520
841
1121
698
447
623
632
608
524
394
335
292
206
-51
-97
-177
-432
-200
84
-159
-329
-171
-195
-271
-191
-310
-493
-335
-219
-406
-346
-140
-255
-331
-184
-211
-161
-169
-343
-164
-204
-227
-7
-143
-142
-121
-387
-327
-5
-70
-261
-241
-238
-274
-210
-169
-175
-197
-258
-258
-181
-106
-252
-325
-194
-226
-414
-286
-55
-191
-256
-198
-113
9
12
43
5
16
157
73
-44
-53
-82
-221
-379
-341
-358
-421
-415
-445
-546
-453
-238
-360
-397
-299
-399
-474
-507
-341
-211
-525
-403
26
631
1951
2915
3106
2090
92
-759
-536
-330
-165
-121
-262
-488
-321
-69
-183
-286
-312
-310
-182
-13
-2
-156
-194
-41
-87
-285
-163
63
-133
-236
-90
-96
25
106
36
-21
38
40
0
150
127
-158
-88
292
307
229
229
257
262
363
569
450
368
623
766
613
621
858
716
456
728
973
852
773
725
550
438
496
376
89
20
47
16
-27
24
-157
-323
-131
-85
-127
-242
-287
-61
-111
-265
-189
-186
-127
-247
-348
-91
-116
-203
-73
-109
-386
-288
-22
-285
-200
296
-106
-449
-96
-201
-343
-198
-284
-314
-90
-143
-296
-286
-191
-105
-223
-179
-192
-344
-190
-143
-204
-157
-272
-236
-251
-290
-112
-125
-94
-99
-184
-132
77
125
13
129
-56
-294
-52
-54
-219
-176
-94
-128
-360
-421
-397
-301
-71
-257
-541
-410
-165
-154
-294
-232
-345
-629
-421
452
1696
2724
3327
2636
532
-593
-364
-427
-355
19
-1
-200
-379
-204
31
-57
-7
-60
-193
28
-22
-173
58
11
-159
-116
62
221
-32
-245
-85
-28
-7
144
159
101
88
92
11
118
312
121
60
277
245
162
226
187
226
424
507
534
536
559
601
583
700
788
735
750
758
715
730
752
706
576
475
395
184
166
275
202
118
-2
-210
-203
-48
-157
-278
-165
-109
-318
-392
-202
-216
-219
-93
-302
-367
-25
-113
-280
-74
-115
-212
-165
-197
-253
-192
-172
-299
-234
-193
-400
-376
-185
-122
-209
-210
-11
-86
-255
-268
-265
-298
-299
-195
-201
-240
-173
-426
-457
-44
-72
-248
-159
-171
-254
-154
-52
-90
-123
-122
-50
35
-36
-96
-145
-129
-180
-211
-145
-348
-464
-332
-273
-382
-396
-207
-254
-297
-180
-391
-442
-353
-421
-295
-429
-491
248
1349
2461
3132
2274
282
-828
-657
-290
-229
-126
-145
-248
-89
-265
-266
-87
-224
-195
-107
-144
-147
-48
-63
-244
-249
-77
-156
-168
-37
63
114
-41
-68
37
49
33
105
167
117
146
111
44
142
61
-90
196
439
265
249
397
397
277
369
657
692
646
640
477
492
666
737
788
810
808
543
325
512
355
94
300
104
-146
-36
-88
-167
-166
-81
-232
-189
-39
-365
-417
-154
-117
-351
-460
-238
-159
-265
-316
-279
-120
-27
-164
-198
-9
-62
-336
-439
-208
-128
-208
-299
-564
-425
-195
-170
-126
-120
-132
-352
-400
-189
-241
-223
-240
-343
-252
-358
-380
-233
-255
-262
-270
-357
-242
-46
-254
-535
-361
-64
-90
-81
-14
-114
-7
49
-8
-107
-215
-116
-226
-256
-168
-343
-340
-347
-459
-319
-305
-446
-383
-221
-222
-340
-259
-185
-268
-383
-450
-476
194
1705
2660
3034
2250
262
-719
-666
-328
-114
-182
-130
-82
-186
-105
-26
-207
-148
-146
-285
-219
77
117
-191
-203
0
-29
-110
-28
-35
-75
48
101
-76
-121
116
86
53
217
-52
-192
201
240
43
192
354
388
326
147
105
314
334
249
333
504
674
702
702
742
748
771
723
630
606
635
707
567
452
551
286
25
58
-18
-46
2
0
-92
-224
-221
-128
-176
-250
-159
-185
-447
-211
111
-199
-239
-75
-221
-395
-405
-240
-128
-26
-26
-202
-145
-62
-281
-285
-147
-179
-91
-176
-371
-313
-320
-425
-374
-135
-17
-111
-259
-311
-286
-208
-133
-156
-237
-210
-191
-302
-288
-314
-282
-157
-217
-325
-299
-243
-149
-92
-79
7
-119
-120
-13
-47
9
9
11
-81
-77
-134
-366
-261
-219
-243
-246
-275
-338
-396
-275
-384
-413
-323
-277
-109
-249
-317
-239
-395
-204
763
1926
2861
3449
2462
299
-540
-259
-79
226
142
-136
-30
76
-80
-49
182
32
-12
42
37
274
360
183
250
277
56
68
184
313
393
388
226
-30
-1
21
38
173
81
40
222
87
-54
329
374
-275
-228
252
27
15
247
-21
-281
88
377
196
225
182
182
455
237
121
450
566
452
283
296
241
150
199
126
32
-42
-138
-224
-265
-201
-208
-256
-255
-166
-233
-467
-214
-188
-528
-394
-295
-380
-358
-229
-196
-284
-233
-84
-187
-302
-234
-192
-160
-27
-53
-209
7
-98
-288
92
213
139
243
253
40
11
203
102
-3
108
100
103
121
-47
-252
-122
157
-1
-147
-162
-235
-227
-178
-180
-154
-86
-44
-116
-282
-198
-262
-498
-455
-514
-790
-835
-754
-853
-1004
-959
-917
-859
-663
-769
-781
-598
-742
-681
-370
-374
-415
-550
-753
-397
498
1544
2459
2663
1405
-410
-1055
-745
-501
-351
-181
-336
-436
-446
-476
-285
-229
-75
-130
-469
-439
-155
-43
-282
-266
107
59
-321
-130
255
50
10
163
3
-88
9
10
56
248
76
-129
41
363
406
218
287
317
227
386
513
394
449
505
431
659
706
448
567
805
876
779
649
745
760
622
643
693
592
396
302
115
-28
83
37
-37
-20
-2
-10
-173
-96
34
-44
-48
-61
45
77
-89
-55
131
295
290
91
155
127
76
224
142
90
212
347
356
121
25
67
-217
-108
220
30
-159
-157
-273
-346
-93
-117
-327
-352
-237
-193
-288
-169
-366
-555
-421
-419
-494
-451
-506
-533
-181
-142
-378
-290
-122
-120
-201
-83
-20
-307
-394
-56
-25
-369
-545
-353
-134
-399
-595
-432
-318
-354
-409
-421
-295
-304
-386
-210
-256
-515
-454
-257
348
1446
2464
3050
2331
525
-603
-653
-356
-122
-241
-285
-60
-57
-99
-24
-20
-116
-215
-41
76
-48
54
172
-105
-38
166
24
159
91
-130
-47
71
113
-27
-45
110
164
112
91
142
29
101
260
93
122
280
162
60
308
530
481
413
429
471
532
548
479
475
675
847
788
732
724
642
693
607
354
379
291
102
79
62
-50
-148
-82
-89
-45
28
-36
-276
-348
-115
-265
-323
12
-20
-232
-170
54
153
-128
-325
-193
-158
-91
-161
-314
-11
129
-83
-136
-97
0
49
-91
-150
-233
-293
-278
-232
-175
-357
-221
-247
-366
4
-134
-242
2
13
-21
-14
-49
-181
-241
-271
-158
-89
-124
-40
16
-24
-83
94
104
107
206
54
108
69
-81
34
-168
-476
-349
-163
-314
-364
-145
-258
-293
-205
-297
-233
-296
-534
-392
-127
-191
-459
-626
-361
636
2037
2956
3115
1753
-257
-786
-533
-365
-76
-102
-270
-138
-301
-496
-220
-41
-33
-58
-51
-57
-130
-146
-160
-35
22
-175
-199
-17
3
55
37
-196
-83
67
-3
142
179
-8
32
227
180
127
232
155
239
263
154
285
357
416
382
325
483
567
531
440
438
626
780
697
520
698
745
641
697
556
418
330
190
165
136
161
1
-389
-222
-85
-169
-8
-153
-318
-162
-151
-350
-249
54
-21
-204
-204
-180
-236
-206
-125
-209
-187
-80
-38
-152
-267
-226
-348
-345
-185
-112
-133
-204
-161
-65
-89
-184
-216
-174
-36
-196
-400
-283
-212
-149
-158
-184
-128
-247
-166
-57
-104
-128
-252
-195
-65
-14
-132
-117
169
178
122
263
220
160
164
89
12
-150
-243
-236
-185
-232
-319
-245
-232
-218
-201
-341
-164
-41
-444
-392
-232
-320
-328
-643
-427
455
1251
2516
3381
2298
273
-731
-471
-189
-354
-166
46
-74
7
51
-61
-378
-389
-58
-4
11
8
-1
52
-118
-89
132
35
-39
20
-56
-71
81
-144
-152
261
184
94
147
31
100
240
31
-81
170
223
219
366
353
359
373
232
317
301
278
594
567
223
495
734
509
683
736
710
776
370
180
423
492
249
226
234
-147
-207
-164
-174
-171
-261
-218
-370
-296
-115
-405
-509
-336
-253
-237
-198
-229
-296
-213
-119
-170
-235
-334
-505
-312
-153
-245
-79
-127
-162
-104
-335
-340
-229
-255
-339
-289
-236
-351
-253
-334
-516
-324
-259
-292
-329
-326
-424
-450
-371
-402
-251
-164
-124
-242
-290
-125
-118
-59
14
-123
-291
-128
57
-43
39
80
-121
-238
-344
-369
-313
-268
-135
-240
-462
-385
-308
-364
-373
-398
-408
-368
-206
-302
-523
-453
-576
-622
180
1587
2560
2755
2004
236
-843
-628
-307
-283
-292
-310
-342
-214
-117
-181
-285
-173
-187
-350
-151
-3
-64
-66
-86
-145
-234
-217
-149
-89
6
-48
-120
-63
134
215
79
47
127
74
27
78
66
67
158
189
122
252
187
104
460
423
127
307
478
395
363
604
657
385
566
728
525
475
579
618
486
493
496
144
-34
96
-17
-63
19
-211
-378
-214
-14
-162
-205
-108
-242
-274
-133
-111
-311
-236
20
-116
-350
-230
-24
-142
-257
-123
-64
-91
-132
-153
-76
-80
-109
-41
-221
-387
-222
-158
-150
-107
-157
-73
-230
-404
-191
-246
-438
-104
-72
-360
-168
-130
-250
-221
-220
-271
-253
-170
-40
-47
-81
-71
-105
159
212
-68
-59
126
-41
-333
-414
-482
-415
-229
-318
-482
-376
-290
-404
-566
-444
-280
-400
-442
-456
-511
-476
-559
-699
-334
667
1809
2828
2852
1312
-388
-913
-607
-268
-235
-372
-333
-308
-334
-142
-240
-342
-144
-346
-350
-133
-210
-275
-338
-171
-177
-313
-101
-108
-162
-28
-113
-220
-120
-169
-180
-4
101
15
-24
26
-126
-93
190
179
-30
106
223
176
252
329
310
310
288
341
427
423
517
364
367
664
636
555
671
529
336
449
447
242
121
119
-46
-118
-125
-249
-285
-202
-118
-332
-449
-207
-77
-106
-112
-58
-241
-401
-225
-36
-98
-220
-224
-134
-15
-67
-253
-445
-131
26
-230
-175
-186
-237
-72
-101
-168
-104
-260
-507
-501
-126
34
-190
-301
-296
-258
-187
-146
-173
-218
-137
-178
-276
-267
-208
-295
-339
31
-14
-108
214
163
-32
183
251
-92
-172
-126
-282
-437
-330
-141
-334
-345
-137
-260
-352
-314
-224
-330
-387
-206
-192
-260
-421
-479
-365
257
1572
2624
3022
2218
275
-650
-410
-185
-109
-220
-218
-227
-176
-86
-178
-106
-114
-282
-36
151
-72
-66
24
-89
-153
41
159
-129
-224
54
93
-43
21
123
64
120
203
104
110
193
111
134
270
166
192
412
463
235
152
341
506
617
567
534
559
621
642
542
608
756
839
842
790
764
641
421
367
458
341
218
260
29
-92
31
-208
-22
207
-38
-24
-71
-227
-280
-161
13
-69
-135
-97
-78
154
141
41
134
-22
-37
61
-285
-395
-166
-234
-142
-119
-262
-89
-150
-452
-312
-210
-245
-175
-322
-322
-201
-458
-708
-502
409
1769
2851
3205
1959
-113
-786
-393
-255
-236
-100
-42
-132
-214
-81
26
-123
-227
-201
-204
-46
81
-42
-201
-175
-5
-97
-20
88
3
69
33
-101
-84
170
222
-37
-95
99
52
55
241
54
123
394
186
134
346
217
130
392
426
419
506
468
481
559
494
481
684
646
694
767
511
537
633
433
454
497
246
119
-15
-182
-82
62
-47
-229
-151
-139
-265
-183
-62
-160
-292
-235
-193
-141
-191
-234
-184
-212
-116
-221
-137
-32
-298
-307
-187
-79
-95
-165
-212
-296
-252
-313
-284
-150
-264
-319
-246
-198
-258
-345
-259
-153
-242
-385
-306
-303
-317
-191
-173
-216
-322
-279
-178
-333
-307
-158
-120
-143
-143
-6
-50
-6
2
-94
-21
29
-53
-273
-371
-386
-379
-293
-356
-553
-486
-252
-362
-446
-354
-343
-368
-332
-302
-588
-657
-551
-576
114
1159
2032
2846
2171
75
-976
-793
-501
-328
-384
-297
-146
-286
-384
-201
-211
-300
-76
-244
-447
-161
-26
-76
-203
-311
-173
-43
13
-128
-316
-192
-62
-41
13
-126
-204
-16
10
-42
23
-76
-92
111
186
138
174
252
12
-34
327
391
292
339
305
162
186
421
451
350
453
502
424
431
463
458
443
408
214
36
56
44
-93
-231
-249
-350
-252
-87
-337
-351
-150
-133
-380
-439
-148
-164
-252
-112
-109
-346
-272
-147
-269
-235
-196
-276
-223
-179
-322
-277
-111
11
-249
-371
-8
-141
-305
-111
-68
-321
-491
-318
-350
-331
-154
-270
-191
-195
-402
-265
-316
-351
-206
-312
-270
-289
-338
-219
-295
-263
-45
-117
-230
-15
13
27
67
-28
57
-85
-235
-198
-294
-396
-427
-276
-381
-444
-189
-367
-414
-220
-388
-372
-281
-381
-341
-277
-416
-671
-530
313
1456
2487
3084
1956
-186
-774
-408
-321
-245
-241
-298
-262
-103
-171
-345
-354
-178
11
-111
-151
-127
-108
32
-45
-219
-44
9
-210
-50
141
-62
-205
-62
-35
-53
83
88
134
105
33
166
134
201
231
95
259
233
117
337
386
273
228
303
435
403
515
674
611
535
571
596
657
776
710
525
400
403
270
143
99
-93
-24
43
-154
-140
-1
-60
-252
-207
-50
-180
-374
-276
-132
-216
-96
-13
-266
-263
-122
-154
-214
-143
-93
-114
-166
-193
-159
-56
-5
-203
-311
-230
-155
-193
-176
-263
-395
-141
17
-173
-193
-155
-282
-200
-73
-222
-274
-216
-241
-225
-180
-166
-241
-295
-246
-201
-188
-180
-181
-125
-73
-116
-174
-38
177
171
46
-1
26
-71
9
142
-89
-331
-295
-188
-383
-409
-209
-208
-333
-342
-212
-463
-453
-150
-372
-336
-121
-306
-709
-644
260
1347
2563
3354
2317
293
-723
-692
-361
-183
-153
-177
-229
-126
-94
-178
-239
-295
-85
71
-51
-176
-112
-20
-216
-229
7
42
-47
125
55
-167
48
95
-157
-156
111
126
106
161
89
35
117
171
202
250
167
258
374
347
448
399
304
456
404
453
622
444
529
690
607
603
563
755
778
423
492
507
349
384
234
150
155
-43
-177
-138
-152
-188
-154
-44
-212
-389
-104
7
-263
-293
-38
-139
-177
63
22
-167
-274
-171
-81
-164
-137
-257
-352
-39
-14
-229
-133
-125
-211
-120
-151
-228
-173
-74
-36
-231
-322
-182
-209
-233
-134
-269
-576
-219
-12
-225
-13
-200
-222
85
-129
-270
-239
-182
-230
-328
-30
116
-171
-167
211
197
32
153
143
75
114
63
-177
-256
-26
-122
-430
-368
-333
-388
-310
-159
-271
-382
-21
-162
-303
-50
-262
-394
-376
-648
-558
512
1917
2875
3086
1772
-85
-691
-471
-296
-164
-32
-58
-202
-365
-183
-82
-136
6
-122
-136
145
-29
-329
-15
163
-108
-138
75
-10
-49
150
-34
-153
117
215
158
207
87
14
240
228
48
35
200
347
144
90
299
325
348
379
550
638
354
470
582
417
588
604
539
763
787
557
606
631
483
499
514
360
212
259
198
61
16
-50
-147
-77
66
-98
-186
-118
-257
-192
-103
-195
-110
-69
-205
-221
-137
-108
-182
-175
-31
26
8
-71
-130
-89
-125
-317
-183
-43
-155
-54
-291
-412
-90
-142
-199
-149
-163
-241
-193
-122
-315
-211
-85
-181
-190
-420
-459
-30
-7
-264
-255
-248
-176
-198
-336
-197
-62
-47
-53
-114
-109
45
20
-30
123
-48
-48
123
-93
-186
-247
-243
-232
-348
-203
-238
-320
-273
-426
-394
-347
-350
-104
-204
-416
-403
-471
-512
-611
29
1417
2277
2937
2588
455
-846
-555
-337
-290
-163
-205
-264
-71
-94
-248
-77
-61
-197
-125
-27
-64
-206
-184
-109
-130
18
62
-92
-86
68
30
-107
-57
7
-46
40
201
118
55
43
-9
118
208
183
189
235
239
189
196
297
429
332
274
418
413
490
635
557
490
619
689
556
608
678
643
561
332
343
336
165
-15
-82
80
-38
-293
-173
-22
-58
-160
-179
-250
-225
-57
-169
-246
-123
-116
-314
-199
74
-198
-327
-102
-255
-346
3
8
-188
-176
-223
-206
-260
-229
7
-57
-391
-346
-275
-326
-107
-161
-326
-271
-178
-256
-238
-52
-252
-335
-250
-359
-269
-139
-125
-267
-415
-150
-31
-321
-223
-95
-205
114
136
-157
-11
51
-79
-194
-258
-197
-314
-356
-169
-266
-367
-265
-486
-452
-149
-294
-334
-248
-330
-413
-352
-372
-558
-732
-358
785
1759
2672
2668
901
-576
-736
-472
-155
-84
-387
-364
-116
-180
-257
-249
-419
-309
-18
-1
-143
-138
-63
-148
-153
-43
12
-110
-201
-234
-228
57
169
75
-13
-39
99
169
97
93
136
66
152
142
-38
190
283
43
124
380
410
303
447
575
495
471
556
589
546
650
597
499
631
631
636
585
209
195
251
136
147
66
226
68
-427
-165
184
-143
-189
-23
-235
-260
-141
-181
-245
-151
-151
-258
-246
-96
-27
-230
-181
-18
-101
-64
-3
-186
-205
-170
-107
-21
-208
-160
-64
-153
-96
-217
-196
-8
-335
-406
-46
-2
-185
-216
-237
-292
-127
-63
-191
-290
-256
-240
-224
-88
-44
-273
-335
-18
-25
-146
15
33
34
116
106
-29
16
135
-37
-176
-165
-239
-477
-461
-176
-223
-313
-218
-215
-266
-247
-258
-357
-348
-117
-115
-432
-478
-582
-406
799
2095
2831
2780
1247
-481
-753
-360
-152
-157
-209
-248
-138
-54
-299
-205
-26
-144
-113
-113
-204
-60
-8
-54
56
-121
-217
-31
-71
-44
90
71
-53
62
168
-105
-160
98
162
86
206
136
-26
246
234
-7
220
387
371
362
500
564
185
319
711
455
274
555
758
636
611
659
582
661
775
475
222
453
483
188
81
60
-117
-117
56
-24
-229
-244
-169
-197
-70
-6
-199
-234
-212
-315
-251
-6
127
-161
-413
-157
-77
-364
-258
11
-131
-132
-66
-172
-143
-142
-259
-255
-122
-140
-258
-170
-186
-209
-215
-322
-118
-43
-201
-218
-213
-195
-296
-322
-286
-375
-219
-212
-269
-98
-93
-177
-244
-156
-20
-125
-189
-88
41
118
45
73
137
-17
-36
-45
-232
-240
-231
-271
-209
-169
-181
-344
-430
-378
-481
-408
-273
-213
-221
-344
-203
-353
-648
-498
88
1395
2561
3296
2588
267
-872
-723
-418
-158
-121
-154
-206
-241
-239
-115
44
-66
-169
-209
-234
-88
53
19
-155
-105
-31
-67
-62
-11
-81
-83
37
30
162
187
-46
-100
32
139
301
229
124
198
132
285
286
121
328
319
337
562
464
304
326
534
789
767
664
684
620
646
815
767
646
657
567
452
428
234
74
153
129
-12
-123
-249
-137
-3
-157
-162
-64
-219
-169
-24
-252
-209
-61
-209
-155
-77
-213
-175
-147
-293
-298
-49
-53
-315
-67
39
-196
-185
-227
-130
-27
-119
-286
-370
-48
16
-292
-292
-129
-214
-310
-248
-360
-286
82
8
-254
-171
-190
-313
-223
-112
-111
-233
-218
-170
-392
-245
-59
-143
-106
58
224
133
105
119
166
215
-2
-206
-198
-95
-142
-369
-337
-214
-482
-394
-86
-183
-191
-220
-273
-184
-313
-338
-214
-333
-487
-666
-44
1593
2628
3037
2415
449
-698
-596
-337
-211
-106
98
-33
-255
-65
-62
-186
-157
-227
-208
-69
21
-71
5
164
-90
-88
32
28
191
75
-96
-108
25
143
138
123
50
114
65
-83
117
376
268
138
233
303
416
453
252
238
471
501
365
412
518
525
541
609
632
597
747
776
628
665
509
432
611
482
276
199
192
69
-108
-92
-189
-306
-155
-65
-162
-161
-152
-177
-183
-259
-263
-194
-130
0
-146
-208
-127
-322
-230
-50
-148
-191
-212
-123
-7
-137
-288
-211
-102
-184
-288
-317
-296
-147
-146
-222
-234
-349
-185
-69
-197
-185
-125
-169
-288
-263
-209
-320
-387
-186
-229
-356
-197
-185
-167
-24
-25
3
158
173
126
-75
-320
-73
-44
-215
-26
-238
-532
-256
-106
-324
-414
-266
-286
-344
-254
-321
-334
-341
-266
-171
-377
-657
-783
-430
628
1813
2641
2950
1792
-270
-996
-531
-392
-340
-130
-108
-135
-222
-216
-196
-276
-139
-94
-172
-49
-85
-215
-181
-107
-259
-289
-36
-89
-172
-72
-30
49
112
-23
-85
21
131
99
-33
57
139
100
67
95
-5
-71
299
367
275
454
421
387
429
414
417
397
546
684
546
676
740
546
623
591
446
468
402
264
187
-40
76
206
-170
-223
-101
-316
-267
-121
-284
-218
-180
-304
-347
-354
-253
-56
12
-202
-253
-213
-223
-177
-179
-186
-216
-126
9
-248
-350
-113
-248
-245
-93
-262
-315
-269
-303
-224
-138
-91
-155
-272
-157
-142
-404
-346
-122
-232
-298
-272
-305
-267
-85
-133
-324
-294
-173
-150
-99
5
-138
-77
130
108
-29
-55
53
-59
-197
-250
-228
-266
-378
-304
-253
-240
-244
-338
-349
-247
-307
-464
-434
-332
-301
-320
-363
-627
-854
-269
875
2015
3137
3063
1216
-457
-738
-519
-274
-32
-173
-333
-75
-29
-272
-323
-213
-91
-167
-229
-175
-122
22
-54
-235
-75
1
-158
-77
21
-143
-178
-38
106
66
-11
185
35
-165
151
252
167
235
272
301
244
162
158
163
463
652
275
319
663
519
485
747
824
550
579
961
899
692
666
519
563
729
423
116
240
123
-23
208
8
-244
-212
-137
30
-110
-196
-182
-325
-200
-58
-238
-257
-15
-157
-497
-168
115
-151
-218
-40
-126
-280
-166
-89
-100
-108
-234
-380
-209
-88
-170
-147
-107
-127
-332
-270
-103
-291
-211
-151
-209
-47
-93
-353
-395
-127
-195
-473
-259
-130
-321
-302
-35
-117
-267
56
99
-157
-90
129
67
-25
139
93
-189
-248
-199
-151
-220
-362
-305
-351
-452
-291
-309
-348
-230
-308
-277
-260
-464
-367
-182
-436
-590
-557
41
1411
2489
3134
2401
473
-591
-684
-418
-340
-330
-90
-39
-48
-104
-252
-277
-186
-111
-122
-200
-140
21
-100
-206
-115
-71
-58
-159
-143
54
10
5
87
14
-8
33
-39
-85
138
170
114
214
251
266
172
135
143
166
302
352
232
458
672
532
640
654
610
655
637
752
722
624
768
682
504
597
490
317
239
85
40
92
40
-33
-64
-153
-215
-326
-299
-145
-163
-67
-94
-264
-256
-200
-185
-170
-291
-369
-150
-111
-119
-179
-341
-139
-39
-210
-144
-33
-316
-441
-67
-33
-191
-119
-238
-461
-314
-97
-142
-53
-156
-315
-215
-315
-361
-308
-338
-287
-322
-295
-200
-319
-227
-241
-356
-73
-62
-84
-8
-93
-46
-189
-40
239
-102
-191
43
-109
-340
-334
-268
-224
-213
-291
-455
-497
-300
-348
-482
-262
-318
-612
-430
-168
-378
-575
-618
-323
674
1965
2876
2824
1252
-644
-840
-546
-557
-169
-136
-217
-152
-310
-195
-9
-229
-404
-161
-162
-313
-187
-173
-206
-154
-15
20
-166
-236
-110
-83
-90
-94
-37
78
52
-42
-142
-21
94
77
206
65
2
186
83
156
250
350
492
306
296
457
336
289
472
487
621
784
637
538
583
661
650
629
543
296
262
346
187
-131
-67
91
-149
-313
-178
-267
-300
-186
-284
-210
-233
-321
-270
-220
-175
-253
-280
-271
-266
-198
-183
-222
-237
-251
-198
-157
-216
-188
-183
-212
-232
-229
-298
-349
-181
-202
-262
-177
-346
-310
18
-90
-400
-342
-188
-198
-315
-437
-298
-167
-262
-334
-281
-163
-43
-28
-105
-179
-185
-18
118
149
-36
-82
73
-250
-332
15
-95
-338
-335
-359
-266
-102
-310
-580
-381
-262
-431
-374
-185
-259
-287
-220
-522
-668
-366
678
2136
3079
3025
1335
-495
-803
-450
-236
-194
-123
-110
-320
-204
-79
-243
-149
-139
-250
-158
-141
-155
-41
-29
-75
-52
-75
18
-19
-327
-31
132
-124
137
141
-116
-129
74
126
-26
231
248
-25
276
352
77
149
187
251
492
500
381
548
525
419
650
614
627
666
663
891
781
688
692
568
549
488
391
290
197
158
11
-131
-39
-80
-234
-83
-69
-310
-255
-87
-319
-541
-58
19
-249
-24
-292
-497
-134
-30
-54
-131
-205
-187
-297
-402
-250
-141
-260
-220
-70
-143
-164
-82
-271
-265
-238
-268
-199
-200
-309
-320
-99
-198
-313
-209
-290
-441
-206
-168
-346
-114
-175
-323
-161
-117
-222
-170
-38
-11
149
85
-19
-61
-126
118
36
-207
-238
-351
-235
-314
-515
-309
-206
-339
-289
-450
-696
-285
-114
-405
-359
-218
-445
-708
-519
317
1460
2391
3009
2374
446
-652
-690
-539
-188
-33
-122
-225
-266
-283
-295
-242
-150
-14
-70
-226
-172
-205
-260
-179
-73
27
-60
-181
-62
-105
-196
-56
28
-3
-16
133
67
-117
44
207
115
8
107
160
60
246
260
224
443
404
374
494
458
349
529
675
652
719
698
671
696
701
793
699
504
531
383
217
262
113
63
73
-119
-176
-31
-2
-311
-283
-47
-141
-122
-338
-578
-295
-104
-201
-253
-110
-182
-295
-192
-189
-188
-142
-231
-295
-211
-229
-171
-149
-278
-332
-265
-228
-71
-81
-354
-276
-139
-218
-220
-205
-370
-343
-146
-173
-289
-268
-346
-459
-370
-294
-258
-324
-200
-17
-146
-92
28
-5
57
94
-111
-152
29
11
-155
-280
-294
-235
-292
-350
-334
-427
-326
-251
-352
-380
-366
-325
-279
-303
-442
-341
-143
-391
-868
-619
635
1714
2623
3236
1827
-276
-673
-418
-460
-166
99
-283
-347
-58
-219
-216
-62
-216
-335
-218
-60
-84
-92
9
-65
-193
-202
-62
26
-66
-45
-113
-87
158
-73
-219
88
101
6
94
174
174
175
223
89
61
229
266
384
446
316
294
454
638
556
552
734
636
528
716
787
705
733
741
670
547
564
552
184
-18
109
124
-147
-156
-56
-131
-62
-181
-277
-112
-84
-250
-328
-232
-256
-268
-120
-307
-534
-378
-91
-49
-141
-117
-174
-176
-76
-155
-207
-85
-211
-361
-217
-77
-245
-393
-245
-113
-24
-256
-431
-174
-168
-345
-309
-217
-171
-152
-212
-180
-223
-317
-212
-140
-182
-190
-124
-277
-327
31
167
118
127
87
29
41
-46
-301
-330
-197
-146
-228
-368
-402
-482
-433
-195
-470
-668
-289
-243
-272
-144
-173
-502
-801
-488
267
1484
2643
3139
2283
371
-679
-652
-410
-230
-160
-162
-103
-61
-230
-297
-297
-523
-320
40
-33
-76
-161
-106
-88
-170
113
-6
-327
-148
46
60
65
63
-122
-176
36
148
206
109
62
111
-91
-4
245
196
325
378
310
482
549
520
416
299
333
526
677
608
669
782
811
829
835
813
630
493
571
464
292
198
-92
-85
39
-106
-134
-98
-35
-90
-209
-123
-132
-207
-184
-193
-253
-107
-277
-492
-108
-53
-154
-161
-135
-49
-258
-297
-97
-110
-111
-25
-153
-302
-170
-63
-308
-313
-5
-223
-333
-102
-196
-208
-163
-197
-123
-128
-196
-131
-180
-206
-158
-314
-366
-312
-266
-55
-114
-282
40
194
90
85
56
2
-98
-103
-56
-141
-233
-234
-211
-308
-261
-333
-481
-202
-184
-450
-397
-252
-236
-308
-460
-260
-262
-567
-296
526
1604
2534
2888
1825
-117
-783
-343
-164
-259
-283
-166
-154
-169
-402
-510
-276
-113
-37
-123
-160
-104
151
89
-223
-153
8
-53
-160
-121
-51
-67
-154
-75
-34
-88
51
164
-18
-18
133
62
76
166
-26
88
526
170
44
452
435
483
460
404
534
569
633
626
691
718
717
773
712
519
377
512
556
239
-83
84
105
90
278
-8
-201
-82
-90
-39
13
-160
-236
-249
-315
-306
-166
-207
-452
-386
-111
142
-32
-348
-216
-141
-251
-182
-100
-112
-47
14
-208
-451
-370
-259
-282
-343
-249
-186
-264
-60
50
-151
-180
-190
-264
-115
-162
-552
-480
-160
-116
-201
-395
-357
-194
-16
172
-275
-378
153
224
-53
-144
-90
-178
-320
-366
-389
-507
-453
-418
-568
-376
-405
-863
-514
-201
-396
-224
-223
-376
-305
-498
-605
-601
-445
760
1799
2453
3006
1767
-92
-594
-632
-513
-202
-280
-183
107
-198
-397
-227
-206
10
-65
-238
-217
-265
-143
-134
-184
-51
38
-57
-162
-174
-66
-111
-137
4
-102
-174
111
194
9
103
121
-48
32
318
225
26
138
142
272
406
349
297
440
540
514
632
641
720
780
634
688
749
652
690
642
493
485
418
302
246
141
-57
-124
60
139
-96
-208
-189
-197
-172
-149
-202
-219
-37
-64
-141
-39
-161
-242
-173
-207
-193
56
33
-348
-181
-115
-273
-79
-154
-277
-232
-270
-165
-31
-115
-175
-141
-168
-238
-226
-75
-52
-65
-208
-537
-397
-218
-107
-26
-234
-382
-449
-308
-102
-194
-56
51
-198
160
263
-295
-110
402
21
-398
-325
-243
-227
-298
-271
-396
-412
-159
-69
-216
-302
-276
-313
-271
-111
-198
-396
-563
-736
-621
-153
800
1989
2880
2780
1214
-385
-573
-323
-388
-292
-178
-212
-298
-99
-93
-461
-201
85
-228
-395
-320
-228
3
-11
-141
-51
-65
-35
-132
-208
-45
-96
181
277
-164
-203
-29
-28
-57
57
-24
-21
223
164
117
170
232
271
284
420
500
368
465
603
505
775
843
586
565
637
729
646
625
703
601
506
478
350
209
215
236
113
110
295
204
64
223
211
-64
-74
16
-53
110
221
-18
-188
-170
18
109
1
0
-82
-133
-40
-121
-240
-231
-240
143
299
-419
-434
20
221
54
-315
425
415
-700
-500
-217
-479
-108
-24
-63
-21
-315
-298
-412
-328
187
-56
-694
-411
13
-67
-128
-64
-5
26
-88
-256
-53
-9
-79
-84
-214
-295
-253
-17
-46
-74
52
-80
-135
-201
-142
71
-28
-18
-69
-183
-204
-454
-618
-661
40
1460
2540
3365
2959
703
-687
-509
-469
-486
-289
-185
-148
-117
-206
-258
-152
-155
-288
-264
-4
34
-67
78
62
-6
151
164
-136
-35
351
183
8
119
120
195
233
53
-4
226
403
324
172
26
93
144
169
259
254
308
271
342
491
493
398
400
514
401
311
476
801
866
592
513
509
358
302
259
67
47
59
-187
-455
-541
-445
-327
-236
-226
-432
-540
-508
-597
-479
-451
-710
-732
-455
-440
-591
-398
-494
-693
-492
-482
-522
-429
-453
-485
-449
-331
-224
-334
-330
-69
-159
-263
-192
-233
-242
-344
-370
-453
-534
-372
-484
-609
-498
-490
-436
-443
-620
-686
-598
-539
-635
-518
-252
-304
-273
-186
-221
-99
-94
-274
-419
-617
-698
-565
-447
-505
-542
-365
-261
-388
-562
-852
-751
-393
-541
-666
-588
-491
-569
-793
-860
-510
529
1634
2573
2626
772
-874
-946
-663
-279
-279
-681
-532
-340
-400
-307
-298
-325
-248
-285
-343
-292
-230
-271
-274
-193
-132
-263
-330
-270
-252
-39
-31
-133
16
115
-32
-244
-91
2
57
409
296
-22
104
63
15
211
173
178
320
416
334
370
513
362
303
372
565
723
631
653
593
405
592
687
516
447
245
46
58
37
-145
-402
-409
-305
-448
-443
-225
-197
-273
-250
-284
-326
-201
-48
-172
-416
-226
-49
-85
-151
-228
-276
-217
-54
-129
-169
68
391
469
350
364
569
493
215
181
100
32
84
153
220
276
372
551
524
79
-60
281
175
-126
-30
71
35
49
216
237
237
556
459
171
402
410
191
423
470
35
-91
119
232
271
255
15
-101
108
132
-150
-164
-19
-178
-210
50
34
-243
-362
-220
350
1513
2878
3646
2812
715
-558
-506
-183
-8
98
152
147
118
27
-11
-19
-102
1
-8
-274
-166
131
203
1
-197
35
141
-182
-193
-75
-118
-37
-93
-206
-20
113
-64
-209
-230
-182
-59
46
64
-44
-59
68
69
110
134
54
225
387
293
257
260
132
231
652
766
493
484
848
786
266
262
372
189
118
-17
-266
-169
264
-126
-647
-406
-304
-508
-540
-418
-509
-442
-422
-727
-804
-562
-487
-511
-335
-337
-580
-502
-363
-496
-660
-435
-48
-610
-848
-350
-580
-736
-383
-428
-587
-444
-469
-549
-423
-410
-687
-523
-251
-607
-709
-424
-435
-692
-650
-503
-618
-591
-398
-382
-540
-464
-350
-429
-333
-160
-141
-200
-170
-253
-189
3
-300
-629
-477
-386
-620
-605
-422
-599
-586
-380
-485
-510
-360
-276
-482
-567
-192
-200
-641
-799
-786
-200
1082
2342
3074
2409
502
-888
-872
-481
-324
-235
-86
-177
-429
-313
-110
-240
-442
-266
-206
-198
20
-98
-368
-298
-82
-100
-170
190
218
-264
-131
61
-137
-50
148
281
181
-59
18
39
107
319
256
166
167
36
107
403
340
269
464
627
688
457
439
582
608
769
632
531
768
875
774
554
572
620
468
446
-56
-446
227
478
37
70
82
-249
-359
-154
-126
-356
-23
251
-334
-635
-318
-170
-166
-121
-311
-415
-286
-245
-332
-344
-251
-261
-259
-389
-308
62
-153
-404
-348
-470
-373
-290
-498
-305
-193
-476
-335
-128
-478
-732
-563
-648
-817
-696
-737
-902
-842
-761
-812
-675
-495
-610
-570
-391
-530
-852
-683
-508
-948
-1059
-854
-991
-1225
-994
-877
-1170
-1080
-1081
-1425
-1057
-715
-1201
-1161
-804
-1008
-1139
-862
-866
-1270
-993
250
1446
2350
2391
740
-946
-1339
-1251
-1183
-860
-582
-693
-801
-786
-786
-865
-584
-208
-710
-1083
-967
-1256
-1315
-1137
-1279
-1373
-1138
-857
-825
-718
-739
-819
-668
-474
-288
-83
182
147
174
354
256
204
381
381
-5
34
370
71
-42
319
150
21
319
532
546
298
337
434
244
620
941
667
753
1180
1132
858
1061
1117
607
362
519
582
405
183
192
124
140
241
95
86
214
144
200
522
494
199
524
777
302
275
535
642
670
336
391
709
572
533
589
448
490
483
313
409
541
493
376
447
442
133
414
389
-40
480
561
102
179
178
-41
-61
56
105
67
255
353
257
555
526
259
505
547
68
-140
52
-86
-280
-25
-129
-364
127
-9
-539
-472
-563
-695
-803
-955
-896
-899
-762
-504
-859
-1220
-830
185
1458
2828
3550
2355
192
-652
-228
-337
-448
-35
-18
-53
317
93
-319
44
72
102
343
139
149
340
373
258
296
644
388
301
723
289
81
549
625
520
574
634
653
711
965
980
563
657
895
734
959
1104
811
882
1084
1150
1055
1041
1354
1136
1041
1471
1297
1229
1525
1467
1250
1409
1579
1418
1416
1301
1060
843
565
718
675
359
363
292
262
446
511
245
243
376
353
785
903
355
544
763
398
613
590
407
456
397
561
417
486
741
364
407
718
228
-80
301
606
435
180
236
233
182
232
223
165
112
185
205
-11
15
40
245
571
349
162
320
399
211
230
486
437
279
323
330
167
11
72
-66
-78
58
-163
-355
-127
311
33
-92
116
-404
-420
84
-52
-26
29
-405
-489
-360
350
1557
2578
3584
2761
217
-863
-528
-221
-136
-103
74
-21
-230
-292
-88
46
-326
-494
-322
6
78
-190
-226
-298
-255
-110
-180
-185
-327
-289
-126
-317
-345
-233
44
-111
-512
-282
-135
-165
-112
-21
-79
-159
23
25
16
211
304
330
200
235
479
470
310
255
195
423
663
567
553
590
723
622
458
412
306
494
393
-10
-123
-138
-35
73
-45
-233
-280
-215
-88
-7
-131
-150
-116
-222
-246
-225
-199
33
9
-175
1
-47
-158
-248
-217
-41
-240
-341
-223
-41
42
-30
-46
-257
-361
-95
123
87
-26
-45
-114
-97
65
-77
-388
-251
-137
-313
-68
251
-11
-149
148
126
37
177
90
-149
-28
38
-149
149
195
-195
-35
51
-107
-197
-265
-5
97
-149
24
153
-234
-307
-183
-385
-404
466
1907
2904
3555
2966
837
-256
-142
-3
254
469
463
387
384
294
99
158
150
-157
-121
74
-81
-146
48
-56
-253
-92
20
17
59
170
-27
-214
76
189
332
263
-153
15
291
108
-62
-12
190
310
349
188
-11
229
481
574
509
396
679
817
593
761
901
634
712
996
924
889
911
540
229
355
283
66
187
41
-115
-157
-375
-457
-487
-440
-391
-368
-445
-519
-653
-733
-443
-413
-398
-350
-589
-642
-533
-347
-434
-570
-354
-424
-599
-460
-518
-510
-355
-577
-535
-232
-348
-562
-550
-332
-305
-606
-503
-218
-584
-659
-210
-352
-636
-391
-310
-618
-425
111
55
52
445
79
-191
245
-174
-539
-221
-401
-528
-312
-251
-406
-437
-389
-367
-528
-726
-514
-477
-398
-113
-403
-609
-317
-325
-521
-562
-199
1005
2298
3291
3247
1481
-259
-707
-317
-156
-330
-501
-240
348
-163
-625
-226
-129
-205
-90
81
-215
-458
-138
-10
-52
27
-18
-115
-137
-116
-139
-35
58
-63
-118
-38
18
-252
-95
401
66
-153
98
-10
158
417
195
93
223
415
435
337
400
490
428
459
622
695
807
874
613
475
720
756
570
444
360
209
89
97
26
-142
-90
-15
-263
-293
-128
-238
-88
67
-353
-502
-384
-381
-171
-80
-237
-253
-131
-138
-243
-237
-173
-214
-209
-110
-153
-344
-281
-25
-236
-309
-85
-191
-192
-108
-292
-433
-277
-8
74
-79
-131
-27
153
181
-13
205
163
-395
-285
39
-31
-148
-250
-299
-303
-446
-332
-68
-377
-470
-303
-470
-404
-364
-498
-364
-246
-435
-592
-585
-558
-38
1145
2409
3076
2378
575
-728
-803
-454
-160
-192
-432
-264
-222
-401
-199
62
-142
-311
-125
-221
-467
-304
-17
-173
-391
-211
-39
18
110
-48
-368
-277
-257
-519
-104
170
-226
-222
-68
-215
-157
86
70
-98
93
287
26
184
523
193
57
412
509
442
414
491
583
441
405
419
638
812
633
659
498
296
85
-159
170
211
-290
-446
-311
-266
-132
2
-426
-520
-20
-152
-490
-295
-329
-608
-278
47
-346
-418
-203
-374
-283
-80
-161
-208
-89
-102
-179
71
-17
-385
-199
-27
-147
-432
-541
-110
-121
-234
-55
-71
4
-57
-412
-647
-316
9
104
208
65
-197
-77
271
263
-49
-237
-344
-498
-244
-134
-251
-343
-690
-624
-453
-394
-377
-674
-509
-209
-408
-460
-295
-467
-697
-492
-158
803
2351
3371
3179
1307
-440
-635
-487
-329
-67
-352
-476
-182
-338
-550
-387
-305
-641
-694
-300
-158
-314
-290
-259
-362
-191
-142
-325
-185
-84
-327
-458
-154
-64
-420
-272
-116
-273
-125
4
-126
-107
167
175
40
188
212
145
338
510
369
506
793
510
427
573
593
646
747
807
505
551
902
623
420
696
565
160
219
316
137
4
67
86
-325
-541
-354
-393
-389
-66
30
-140
-56
-70
-204
-237
-345
-223
-191
-311
-286
-340
-306
-319
-412
-165
-139
-310
-166
-88
-172
-143
-4
-303
-357
116
-170
-442
-152
-281
-484
-388
-263
-146
-38
209
41
-457
-139
364
144
48
284
104
-40
-15
-181
-288
-210
-211
-404
-348
-229
-387
-527
-412
-258
-461
-545
-217
-259
-292
-68
-489
-739
-516
-747
-699
541
1981
2952
3568
2636
286
-765
-246
-215
-555
-248
51
-137
-274
-304
-367
-257
-79
-292
-635
-493
-160
-297
-295
-32
-197
-172
166
-60
-292
-73
11
-65
-12
98
-42
-209
-69
85
27
185
362
240
152
61
75
195
192
294
439
538
584
447
618
846
626
539
692
746
698
836
885
565
679
961
561
226
339
251
252
288
-100
-365
45
196
-257
-397
-245
46
-57
-293
-69
-70
-328
-473
-377
-158
-120
-220
-270
-208
-109
-228
-476
-214
-239
-526
-20
-39
-685
-448
-183
-502
-394
-133
-223
-349
-241
-229
-262
-57
-125
-354
-244
-195
-359
-329
-206
-104
-28
64
119
48
126
313
194
-170
-194
-93
-289
-139
54
-292
-398
-120
-162
-409
-387
-345
-476
-432
-276
-407
-560
-336
-268
-295
-32
-492
-1115
-851
-104
1050
2440
3552
2957
740
-545
-632
-586
-190
12
-300
-355
-256
-382
-299
-138
-365
-465
-184
-146
-318
-244
-176
-228
-101
28
-46
-66
-69
-89
-27
4
-2
-150
-78
165
96
44
1
-50
-61
27
155
29
-44
174
307
147
210
364
220
212
414
334
94
248
403
217
267
516
481
431
541
464
396
338
109
7
82
-63
-341
-303
-147
-203
-361
-285
-245
-207
-98
-338
-533
-338
-252
-469
-448
-233
-282
-370
-252
-159
-291
-338
-165
-212
-375
-236
-323
-422
8
-134
-552
-334
-252
-448
-349
-181
-227
-173
-173
-279
-142
-66
-97
-148
-253
-80
112
23
17
-38
-242
-62
105
-160
-384
-451
-357
-276
-101
-107
-506
-489
-283
-428
-571
-376
-241
-445
-399
-130
-459
-668
-309
-499
-821
-359
561
1776
3151
3230
1244
-462
-579
-567
-550
-214
13
-13
-154
-115
-205
-323
-234
-124
-170
-277
-67
-148
-292
-174
-232
-83
-16
-208
-57
88
-17
-224
-251
15
-41
55
219
-152
-107
258
39
-122
220
428
253
211
346
306
243
489
585
236
422
661
352
491
796
521
481
852
777
559
734
749
331
256
465
436
186
5
-58
-76
27
-150
-283
-170
-245
-308
-189
-127
-227
-334
-231
-148
-363
-261
49
-156
-359
-58
3
-323
-271
-124
-149
-32
76
-180
-430
-183
43
-80
-193
-195
-314
-338
-169
-166
-295
-213
-251
-394
-149
113
-96
-101
142
-39
19
308
280
231
60
-138
-188
-301
-247
-183
-145
-194
-503
-532
-218
-155
-444
-525
-237
-316
-443
-240
-292
-373
-445
-447
-585
-819
-658
-207
980
2463
3481
3071
902
-538
-559
-307
-30
-163
-343
-188
-187
-278
-174
-250
-464
-339
-336
-357
-119
-161
-122
-34
-110
129
-97
-427
-80
3
-103
-100
-13
64
41
124
-12
-43
128
-47
86
531
322
-26
196
292
127
194
348
356
374
493
429
350
560
676
532
613
673
505
447
739
918
701
739
668
325
292
322
-17
-263
-234
-305
-293
-324
-423
-510
-588
-418
-331
-513
-337
-173
-569
-578
-387
-590
-641
-409
-374
-461
-415
-548
-554
-241
-638
-1078
-781
-560
-518
-808
-810
-519
-967
-1169
-927
-926
-845
-732
-1013
-1233
-887
-832
-937
-585
-488
-632
-459
-268
-260
-285
-258
-353
-442
-172
-209
-654
-606
-522
-616
-447
-393
-537
-488
-281
-529
-818
-379
-196
-521
-445
-257
-258
-497
-725
-681
-699
-291
1062
2495
3201
2911
1068
-707
-730
-418
-453
-331
-55
-150
-718
-117
252
-758
-541
-245
-996
-739
-168
-370
-324
-379
-621
-674
-672
-609
-854
-317
222
-486
-617
-231
-182
-246
108
194
-376
-139
-241
-507
125
140
-132
137
233
-5
-45
103
148
66
458
688
159
203
593
556
242
171
607
525
232
556
718
416
299
344
-117
-330
27
-101
-334
-222
-156
-217
-344
-480
-423
-210
190
2
-558
-132
-238
-776
-231
167
-47
97
-50
-438
-399
-246
-178
-175
149
48
-195
-30
-77
19
121
217
306
-11
-10
-53
-149
151
125
-161
-5
343
294
282
331
246
279
-129
-360
-115
89
256
-187
-430
-326
-186
-162
-198
-90
-683
-745
-201
-387
-563
-397
-268
-425
-402
-266
350
1193
1772
3123
2724
391
-422
-282
-350
-11
21
-449
-444
-240
-41
-134
-393
-159
116
-68
-77
144
141
242
-65
-292
248
297
39
169
291
623
333
-128
325
436
459
312
285
29
-434
91
490
439
42
394
833
127
-120
442
642
193
625
919
217
578
901
665
855
892
953
1105
1235
1584
1462
978
925
922
1006
989
662
625
851
703
414
716
790
362
283
356
445
543
595
822
976
904
752
635
798
965
837
832
1026
762
503
1098
1286
972
1096
1098
879
867
1073
906
571
697
822
728
780
775
622
566
675
932
1141
1252
1371
1451
1830
1878
1390
1614
1585
1313
1510
1310
1060
939
777
741
661
620
626
459
292
364
366
251
265
225
28
-227
272
1731
2892
3583
3324
1302
-302
-142
-9
-122
167
217
33
46
38
-126
-156
-159
-244
-166
-165
-550
-619
-391
-487
-684
-469
-296
-691
-774
-444
-448
-677
-670
-652
-648
-492
-619
-1013
-979
-744
-810
-898
-703
-572
-803
-934
-880
-920
-855
-517
-573
-816
-504
-239
-429
-389
38
-24
-281
-76
-17
25
234
-24
-407
-344
-281
-246
-350
-593
-507
-508
-473
-542
-789
-712
-664
-827
-852
-691
-643
-833
-781
-493
-695
-644
-336
-603
-592
-384
-627
-768
-466
-378
-655
-562
-399
-510
-535
-437
-479
-545
-396
-382
-487
-302
-116
-469
-464
9
-232
-417
-179
-133
-361
-342
-70
-184
-200
-34
-375
-659
-462
-504
-823
-936
-732
-759
-792
-489
-678
-933
-657
-771
-992
-807
-695
-782
-806
-939
-1236
-1106
-186
1288
2439
2956
1898
-261
-1008
-602
-410
-412
-354
-317
-433
-619
-451
-272
-415
-273
-358
-448
46
-130
-614
-401
-192
-308
-266
3
-102
-194
-20
-236
-421
-224
-121
-153
-228
-38
-29
-349
-208
2
-48
-48
176
66
-141
273
209
-87
290
406
308
485
486
209
352
684
609
638
837
700
301
364
512
262
289
335
62
-216
-371
-232
-266
-479
-337
-375
-450
-219
-253
-493
-348
-246
-472
-382
-288
-414
-332
-260
-519
-600
-245
-205
-475
-358
-176
-570
-609
-115
-163
-264
-119
-489
-760
-362
-51
-235
-427
-149
-173
-523
-304
-86
-448
-471
-80
-190
-179
125
-56
-165
218
97
-300
-47
-52
-445
-449
-296
-390
-525
-310
-295
-593
-545
-309
-379
-492
-577
-576
-493
-290
-56
-334
-559
-390
88
1179
2586
3318
2632
587
-868
-828
-513
-174
-294
-524
-135
-90
-377
-331
-308
-401
-323
-257
-334
-312
-106
-187
-470
-329
-124
-198
-141
-119
-291
-401
-163
-44
-215
90
173
-185
-85
129
-57
-177
79
120
-66
303
536
-54
-223
427
615
505
639
632
537
538
737
731
795
1030
798
584
735
818
673
585
566
351
179
211
56
-25
78
-215
-421
-154
-9
-146
-111
-103
-404
-405
-128
-163
-395
-236
-46
-433
-441
-121
-279
-231
-79
-230
-198
-63
-134
-308
-369
-129
-109
-198
-52
-182
-392
-311
-182
-255
-348
-296
-276
-250
-103
-97
-189
34
125
-218
-159
106
93
89
26
45
9
57
38
-264
-92
41
-423
-670
-264
-70
-357
-453
-501
-484
-357
-271
-340
-444
-233
-315
-577
-560
-538
-519
219
1505
2492
3122
2418
290
-946
-553
-288
-658
-449
-19
-108
-169
-251
-373
-320
-114
-175
-506
-382
-143
-406
-375
-124
-348
-268
-22
-38
-234
-237
-23
-181
-171
32
-69
-100
2
-46
-238
-200
-15
-244
-212
255
271
75
102
285
362
379
441
381
320
365
406
447
596
634
600
643
570
658
689
519
387
110
189
247
-139
-144
102
-102
-355
-267
-378
-584
-262
-9
-342
-366
-246
-496
-372
-127
-376
-437
-184
-270
-516
-392
-163
-287
-364
-96
-102
