489
450
243
8
183
70
-206
-106
-123
-283
-210
-229
-335
-278
-261
-341
-235
-258
-472
-217
-87
-305
-319
-175
-139
-296
-345
-208
-284
-334
-28
-71
-313
-156
-137
-370
-342
-193
-175
-299
-186
-178
-430
-269
-161
-385
-263
-238
-667
-489
-91
-203
-289
-118
-198
-454
-340
-290
-350
-269
-153
-202
-353
-338
-343
-348
-258
-319
-583
-326
-48
-261
-202
-133
-146
-49
-42
84
45
-103
-25
-198
-210
-176
-423
-477
-317
-226
-369
-430
-397
-377
-417
-364
-343
-515
-450
-261
-338
-424
-413
-522
-802
-608
715
2092
3124
3390
1613
-449
-815
-560
-491
-277
-135
-244
-285
-181
-197
-340
-312
-194
-224
-144
-91
-245
-164
-2
-85
-139
-30
-33
-94
-31
-69
-117
-86
-32
27
-167
-55
147
69
137
-107
-66
247
207
206
238
258
271
272
348
487
325
277
683
378
214
820
789
668
830
812
761
774
773
608
585
527
165
166
254
40
-84
-181
-142
-223
-445
-247
-137
-307
-236
-230
-365
-310
-308
-343
-334
-390
-327
-342
-305
-201
-393
-326
-140
-350
-431
-185
-211
-327
-255
-243
-242
-224
-192
-349
-511
-140
-177
-567
-262
-173
-400
-280
-219
-377
-419
-275
-261
-330
-232
-240
-399
-382
-224
-277
-482
-270
-162
-295
-271
-383
-439
-364
-187
-208
-292
-136
-221
-264
-22
1
-127
-131
-109
-4
79
30
-165
-399
-268
-215
-425
-478
-395
-370
-439
-455
-350
-418
-441
-368
-538
-542
-360
-339
-618
-624
-438
-12
1178
2383
3134
2655
564
-963
-806
-434
-268
-338
-478
-164
-188
-302
-112
-162
-148
-165
-307
-191
-40
17
-97
-194
-91
-80
-72
-14
-53
-213
-150
111
-46
-134
125
95
-41
74
182
188
129
59
79
145
340
286
212
501
478
146
377
759
582
568
688
623
710
793
754
713
794
799
674
757
736
485
405
452
313
-29
-33
102
-36
-146
-221
-196
-183
-154
-202
-435
-297
-128
-327
-329
-177
-297
-343
-161
-177
-194
-74
-192
-294
-212
-181
-282
-278
-130
-272
-207
-50
-208
-239
-247
-139
-160
-372
-183
-182
-355
-213
-179
-323
-281
-239
-344
-225
-252
-368
-253
-156
-268
-289
-260
-294
-208
-294
-286
-220
-337
-200
-164
-316
-93
-99
-290
-139
57
72
-38
-59
-37
-10
-117
-147
-153
-328
-274
-278
-350
-310
-470
-482
-225
-310
-352
-200
-209
-291
-308
-257
-297
-458
-599
-402
291
1340
2402
2972
2245
400
-716
-684
-433
-130
-236
-240
-1
-185
-228
-72
-110
-191
-154
-59
-84
-181
-114
-16
-56
-123
-99
-17
-40
32
12
-181
-63
54
-41
18
74
82
108
-19
41
107
62
104
227
292
212
211
340
402
286
309
528
605
487
523
610
508
593
882
806
578
715
715
561
633
533
310
302
288
119
-65
10
-114
-442
-235
-100
-209
-179
-206
-266
-221
-73
-91
-256
-245
-147
-228
-231
-250
-400
-219
-96
-244
-369
-255
-102
-295
-385
-108
-14
-127
-130
-138
-207
-179
-145
-300
-228
-140
-301
-269
-138
-222
-452
-328
-80
-350
-377
2
-163
-303
-54
-73
-256
-217
-151
-250
-216
-187
-268
-321
-201
-48
-168
-117
-6
-26
36
-68
-72
179
98
-63
-85
-199
-161
-185
-318
-346
-435
-321
-135
-277
-346
-228
-283
-396
-295
-201
-333
-376
-291
-488
-410
641
1793
2550
2633
1180
-527
-873
-513
-333
-240
-94
-61
-246
-327
-190
-241
-266
-99
-99
-181
-172
-125
-164
-291
-137
-27
-56
-9
-71
-138
-44
34
17
62
133
153
-115
-184
100
75
9
124
145
121
184
175
182
254
271
154
280
568
481
472
565
553
421
454
710
729
758
838
727
475
493
528
299
345
266
36
-65
-117
-129
-153
7
-34
-225
-95
-168
-425
-243
-53
-144
-150
-113
-132
-271
-408
-244
-166
-190
-151
-159
-93
-356
-477
-116
0
-74
-156
-108
-111
-283
-256
-86
-127
-262
-80
-57
-389
-284
-192
-268
-171
-148
-129
-138
-165
-274
-285
-141
-72
-121
-215
-110
-226
-480
-207
-160
-281
-35
-10
-181
-26
-13
-146
9
100
125
76
-38
-78
-71
-69
-153
-264
-156
-261
-346
-209
-313
-265
-200
-209
-172
-321
-435
-313
-175
-218
-283
-327
-419
-30
904
1819
2614
2495
890
-555
-718
-393
-271
-158
-66
-128
-167
-50
-168
-276
-82
-179
-169
57
91
-65
-135
43
-23
-291
-23
225
-27
-40
91
66
10
-87
3
39
69
240
136
71
279
276
-61
125
332
62
237
500
421
369
481
548
379
512
741
597
630
812
756
677
792
720
700
810
561
358
462
349
22
4
140
117
-5
49
-22
-99
-101
-349
-320
-181
-88
-116
-207
-97
-117
-222
-218
-329
-463
-303
-61
-50
-133
-87
-98
-200
-222
-110
-118
-432
-287
-14
-169
-98
-65
-205
-245
-336
-297
-100
-40
-100
-236
-176
-191
-608
-449
-25
-125
-146
-36
-132
-244
-168
-124
-336
-357
-133
-230
-259
-79
-146
-219
-96
-6
-356
-466
86
242
126
119
90
-18
-249
-178
-124
-255
-150
-172
-374
-304
-203
-332
-264
-149
-349
-318
-280
-594
-455
-74
-146
-389
-386
-302
222
1391
2347
2696
1924
254
-751
-677
-347
-115
-178
-457
-245
-246
-339
5
-13
-144
-135
-8
-28
-100
-36
-150
-135
2
-58
-114
-52
-341
-448
123
158
-50
127
193
97
55
68
16
10
88
239
201
173
301
306
267
68
104
342
389
613
667
623
825
748
525
698
837
755
805
872
729
633
698
346
13
275
390
142
91
143
-111
-183
-57
-194
-213
-66
-81
-218
-169
-167
-330
-307
-345
-261
-155
-149
-118
-153
-193
-394
-265
-153
-169
-147
-252
-141
-75
-257
-249
-53
-327
-458
-76
-81
-272
-234
-201
-246
-224
-196
-222
-219
-123
-199
-594
-452
-54
-180
-211
-58
-189
-225
-190
-299
-346
-276
-173
-211
-229
-153
-246
-448
-315
-79
-22
76
78
4
81
80
19
17
-208
-290
-207
-220
-243
-331
-288
-318
-470
-379
-296
-303
-295
-189
-273
-508
-407
-346
-273
-257
-386
-410
31
1193
2281
2867
2338
580
-783
-714
-267
-359
-262
-71
-140
-242
-153
-92
-456
-379
-27
-122
-119
-12
23
-47
-217
-48
16
-127
34
-63
-126
-8
-109
-22
36
33
55
-46
3
68
86
192
132
3
211
312
79
102
357
426
372
458
597
599
591
695
643
563
748
792
612
755
924
682
591
706
551
381
292
98
137
111
-49
-110
-119
-44
-219
-321
-98
-30
-217
-211
-178
-356
-229
-81
-275
-337
-168
-192
-275
-92
-39
-243
-274
-123
-223
-286
-150
-167
-256
-179
-93
-309
-184
122
-209
-323
-63
-193
-346
-236
-141
-168
-219
-166
-188
-258
-189
-199
-289
-390
-328
-376
-391
-55
-116
-299
-116
-213
-411
-140
-55
-224
-191
-138
-251
-264
-99
-128
-186
4
49
-121
-175
-4
168
38
-95
-149
-151
-90
-133
-261
-270
-228
-286
-334
-251
-301
-322
-237
-438
-450
-296
-265
-264
-319
-377
-524
-350
616
1788
2685
2953
1804
-169
-770
-370
-456
-331
24
-108
-444
-206
43
-244
-291
-22
-37
-198
-111
-19
-134
-153
-5
-34
-148
-49
-26
-74
44
60
-66
-138
-10
84
0
105
180
41
8
164
176
148
279
195
195
342
367
333
332
527
619
513
497
546
696
897
716
659
914
911
730
687
789
672
542
445
210
139
212
137
-47
-99
-116
-264
-329
-60
-75
-319
-139
-53
-350
-375
-148
-233
-263
-147
-179
-285
-167
-103
-293
-289
-272
-278
-179
-47
-169
-415
-170
-47
-193
-164
-83
-123
-255
-220
-186
-236
-176
-177
-262
-314
-270
-185
-186
-226
-322
-282
-150
-179
-203
-157
-212
-340
-329
-125
-192
-398
-227
-102
-316
-307
-78
-86
-328
-305
-153
-335
-118
66
-190
-85
80
-39
15
170
70
-51
35
-33
-344
-227
-20
-246
-285
-168
-259
-283
-350
-498
-356
-266
-285
-212
-229
-236
-361
-385
-378
-661
-249
1017
2147
2999
2991
1372
-383
-757
-414
-178
-260
-299
-14
-95
-256
21
-113
-363
-97
30
-126
-109
18
-139
-250
-15
82
-130
-157
68
81
-84
-31
44
79
152
141
114
117
144
88
-30
99
315
188
71
199
325
442
518
456
403
522
493
501
783
893
890
884
925
969
1044
1157
1118
1032
855
841
797
741
752
472
350
452
336
134
181
205
29
95
270
29
0
254
54
-128
65
187
79
132
226
131
138
40
-22
42
110
170
118
139
181
41
-24
155
154
-1
104
8
-187
-14
59
7
58
103
-30
-107
-27
82
10
-100
58
-85
-108
1
-286
-150
58
-58
-116
-50
77
-114
-212
-6
7
-35
0
-144
-251
-99
-34
-55
12
6
-85
-74
140
282
76
150
249
62
118
154
-48
-215
-123
-98
-360
-253
-16
-174
-225
-213
-146
-184
-321
-198
-114
-201
-202
-257
-528
-578
-373
429
1811
2873
3334
2406
356
-737
-620
-258
-99
-202
-163
-33
-54
-98
-76
-77
-198
-94
-40
-153
-7
-82
-215
18
137
-50
-12
131
-83
-152
99
112
-6
101
149
47
-51
-18
171
221
263
237
140
273
247
103
261
468
420
385
521
627
549
517
647
706
699
813
900
762
758
909
879
712
728
623
380
373
264
133
189
183
-196
-228
47
-155
-205
-74
-168
-388
-265
-30
-191
-171
-125
-276
-231
-141
-192
-324
-269
-114
-185
-105
-68
-265
-275
-131
-126
-185
-99
-100
-153
-99
-103
-314
-309
-122
-188
-249
-110
-139
-309
-404
-280
-113
-236
-191
-192
-280
-201
-294
-300
-254
-275
-187
-180
-319
-369
-244
-209
-213
-366
-374
-56
-188
-302
-79
-101
-120
-72
-83
-54
-109
-88
-63
-109
-5
-33
-264
-400
-330
-282
-261
-177
-275
-348
-195
-232
-474
-381
-266
-404
-296
-147
-420
-615
-469
-493
76
1331
2326
2939
2303
496
-753
-799
-374
-172
-169
-150
-165
-234
-284
-182
-133
-125
-110
-263
-136
-110
-313
-105
35
-19
-10
6
-59
-240
-104
155
8
-126
84
172
123
35
29
88
66
84
145
169
129
302
229
102
418
390
315
532
496
478
649
552
479
679
811
720
594
772
737
516
695
738
589
537
470
291
40
54
85
-104
-176
-73
-110
-216
-121
-178
-347
-117
-149
-490
-314
-65
-190
-227
-120
-233
-259
-182
-268
-204
-69
-108
-169
-277
-343
-172
-78
-148
-199
-212
-144
-160
-278
-262
-122
-132
-299
-282
-88
-201
-425
-235
-222
-301
-111
-181
-305
-203
-164
-253
-239
-273
-302
-205
-141
-172
-388
-365
-108
-155
-224
-262
-322
-125
43
-107
-151
28
73
-76
-89
106
53
-105
-130
-121
-164
-177
-171
-271
-289
-233
-203
-253
-255
-324
-453
-311
-233
-376
-336
-229
-336
-484
-478
169
1356
2463
3154
2469
525
-635
-582
-344
-192
-174
-175
-311
-457
-120
-49
-201
-41
-11
38
3
-114
-117
-123
-41
-104
-124
-9
-28
11
-33
-110
-46
32
102
168
212
29
-2
208
156
40
232
228
57
237
299
247
290
368
458
447
527
659
627
659
734
673
618
796
868
774
868
825
671
662
561
416
391
292
157
60
17
13
-147
-221
-122
-239
-296
-152
-224
-253
-241
-304
-205
-288
-278
-283
-366
-182
-209
-269
-193
-241
-340
-279
-209
-271
-237
-278
-407
-298
-75
-94
-248
-232
-250
-408
-334
-141
-208
-363
-321
-202
-324
-388
-217
-276
-343
-121
-192
-490
-382
-110
-224
-412
-235
-162
-469
-348
-198
-377
-289
-233
-204
-264
-266
-292
-352
-171
-112
-20
-44
-122
5
68
149
123
37
76
34
-110
-182
-163
-219
-324
-261
-283
-306
-183
-250
-304
-156
-123
-257
-246
-149
-235
-348
-291
-379
-611
-307
820
1971
2817
3294
2059
-93
-750
-416
-205
-69
-134
-210
-206
-172
-134
-108
-35
-54
-54
5
-2
-97
-80
-25
-58
-14
96
47
-185
-106
14
-143
10
116
-74
32
150
4
47
204
264
145
119
330
167
85
474
437
91
365
595
421
493
652
628
607
780
795
676
859
885
575
718
844
639
699
652
515
345
254
284
39
-24
11
-171
-272
-211
-174
-258
-165
-167
-398
-317
-90
-196
-288
-129
-184
-319
-311
-236
-230
-133
-47
-281
-275
-162
-232
-148
-139
-193
-187
-201
-126
-223
-315
-209
-176
-274
-347
-273
-224
-221
-185
-286
-376
-177
-173
-384
-262
-208
-390
-277
-208
-346
-318
-178
-183
-362
-498
-341
-211
-241
-208
-251
-231
-228
-274
-278
-173
-175
-304
-115
186
45
-165
78
139
-21
-28
-55
-242
-316
-211
-311
-389
-280
-300
-467
-389
-259
-299
-270
-250
-306
-304
-261
-259
-456
-580
-563
-414
632
1951
2892
3248
1920
-132
-823
-484
-267
-339
-258
-109
-162
-183
-174
-202
-298
-238
-54
-107
-177
-50
-68
-229
-135
-113
-201
-171
-4
37
18
74
-171
-43
108
-36
59
-1
18
121
90
208
244
35
100
290
226
359
424
198
373
632
510
503
657
702
525
569
913
803
690
919
764
592
790
777
498
428
488
205
29
59
-164
-162
-9
-49
-176
-220
-191
-314
-369
-251
-165
-145
-208
-305
-246
-165
-215
-275
-316
-149
-125
-291
-149
-145
-239
-236
-258
-212
-133
-137
-265
-399
-328
-206
-305
-177
-92
-308
-292
-173
-220
-261
-189
-214
-316
-228
-249
-356
-310
-381
-364
-245
-193
-318
-444
-249
-209
-284
-222
-179
-270
-380
-247
-159
-249
-200
-128
-217
-122
-52
-175
-142
-72
-16
-31
48
133
-2
-143
-190
-208
-381
-309
-210
-356
-278
-247
-353
-353
-311
-334
-442
-537
-349
-228
-299
-278
-662
-764
121
1214
2338
3400
3012
987
-624
-834
-442
-212
-271
-230
-133
-240
-244
-187
-113
-33
-180
-191
-21
-154
-184
-5
-152
-203
-45
-109
-117
-50
53
52
-90
42
-16
-44
179
86
-148
-8
305
227
124
183
149
122
291
438
276
277
489
507
479
542
578
574
738
819
722
781
875
833
826
873
823
629
567
663
388
179
438
109
-168
134
-90
-270
-52
-41
-187
-170
-94
-236
-329
-146
-110
-352
-339
-129
-317
-354
-13
-101
-263
-163
-157
-143
-87
-115
-187
-157
-41
-185
-369
-365
-235
-314
-403
-140
-220
-278
-136
-213
-215
-154
-291
-393
-168
-146
-379
-271
-124
-293
-393
-265
-174
-149
-238
-315
-248
-377
-337
-144
-217
-232
-307
-347
-182
-80
-183
-262
-72
-52
-93
29
11
39
138
106
74
93
-72
-152
-183
-222
-92
-156
-128
-112
-249
-196
-170
-275
-260
-147
-173
-328
-315
-190
-247
-225
-360
-721
-240
1158
2389
3261
3285
1412
-506
-606
-212
-165
-122
-2
-12
-177
-93
-37
-231
-139
54
-113
-128
49
-72
-104
76
-44
-151
89
37
-96
49
32
-100
-29
149
177
49
-23
118
155
0
210
210
160
446
162
99
411
438
409
413
580
510
243
530
739
471
661
953
661
567
957
931
739
837
753
580
567
527
325
230
107
-96
-100
-67
-125
-258
-237
-184
-321
-309
-138
-171
-342
-298
-230
-277
-198
-157
-252
-362
-393
-262
-245
-298
-123
-224
-347
-130
-226
-306
-123
-162
-338
-266
-155
-375
-364
-170
-308
-341
-228
-212
-336
-478
-354
-292
-274
-184
-249
-297
-395
-465
-359
-232
-222
-296
-273
-221
-237
-397
-430
-270
-371
-307
-152
-322
-413
-339
-296
-317
-102
4
-103
1
-21
-120
-30
-6
-114
-190
-233
-294
-412
-518
-407
-430
-514
-315
-318
-415
-369
-502
-564
-286
-259
-404
-334
-342
-513
-852
-365
1072
2090
3005
2969
930
-683
-680
-537
-459
-225
-265
-262
-187
-216
-329
-489
-330
-140
-190
-142
-90
-185
-156
-75
-305
-368
-4
-19
-155
34
1
-49
98
-180
-287
-15
79
90
27
137
26
-91
220
332
168
225
379
304
248
340
301
317
599
662
554
672
781
620
604
766
759
678
803
867
615
555
510
173
77
229
186
7
-61
27
-202
-448
-194
-197
-335
-140
-171
-337
-272
-167
-294
-538
-450
-203
-206
-248
-107
-205
-328
-149
-253
-263
-103
-229
-248
-158
-198
-428
-354
-131
-280
-250
-119
-252
-299
-266
-384
-420
-219
-105
-210
-293
-186
-178
-598
-566
-150
-239
-285
-159
-234
-325
-232
-166
-417
-447
-186
-254
-295
-205
-231
-203
-87
-98
-410
-371
45
1
-15
170
37
17
16
-294
-350
-238
-228
-341
-500
-344
-200
-365
-447
-287
-406
-546
-329
-277
-287
-307
-433
-507
-571
-409
489
1772
2777
3120
1976
-54
-1082
-714
-227
-252
-280
-147
-124
-268
-257
-210
-316
-210
-2
-69
-209
-62
-47
-357
-295
-73
-86
-45
37
-35
-56
18
-283
-342
97
187
61
92
192
113
140
49
-156
171
357
290
292
336
377
491
280
107
598
633
502
764
719
489
738
956
875
920
894
777
770
742
502
236
177
249
207
155
93
-110
-90
-83
-512
-530
-166
-116
-149
-126
-132
-226
-386
-321
-151
-240
-225
-138
-207
-194
-176
-344
-366
-232
-189
-114
-162
-295
-203
-170
-323
-314
-124
-40
-255
-264
-107
-168
-225
-149
-161
-306
-155
-191
-551
-350
-97
-217
-251
-130
-112
-307
-148
-256
-761
-367
26
-100
-156
-113
-123
-427
-478
-114
-74
-217
-54
-36
-162
76
-7
-366
-3
189
-8
90
112
-77
-170
-299
-553
-339
-81
-161
-238
-241
-186
-264
-361
-470
-358
-244
-244
-143
-300
-345
-542
-761
-98
1139
2364
3136
2928
1349
-325
-627
-282
-198
-177
9
-100
-319
-254
-205
-184
-107
-50
-260
-307
-133
-89
-8
0
46
30
-77
4
-78
-206
29
158
-46
30
222
-85
-113
196
56
56
259
102
28
280
248
121
288
452
479
242
319
540
480
669
827
734
766
843
769
774
1029
1024
580
664
860
558
535
597
401
15
-66
178
-30
-138
35
-250
-412
-114
-115
-280
-185
-96
-205
-226
-116
-151
-357
-257
-111
-382
-362
-100
-126
-81
19
-152
-215
-60
-112
-192
-111
-54
-157
-170
-78
-203
-160
-66
-190
-279
-245
-150
-140
-91
-27
-179
-146
4
-221
-328
-157
-118
-149
-143
-63
-121
-172
-91
-176
-194
-245
-220
-78
-77
-49
-149
-146
-94
-225
-120
34
72
150
267
146
55
71
69
163
36
7
-13
-204
-263
-169
-214
-336
-182
-205
-290
-184
-244
-261
-176
-162
-274
-343
-180
-258
-695
-485
709
1907
2958
3512
2170
133
-563
-461
-360
-91
-3
-324
-235
31
-210
-216
46
-92
-193
-115
-90
-47
-131
-189
-122
-52
93
-34
-121
67
36
3
104
98
-35
-3
141
159
129
106
19
28
300
373
167
167
364
334
236
448
538
384
497
790
716
550
815
816
703
991
920
799
843
856
840
669
685
550
342
302
165
49
-24
-63
-225
-244
-126
-281
-339
-188
-149
-192
-159
-180
-261
-301
-241
-173
-253
-155
-143
-374
-219
-107
-313
-199
-237
-462
-237
-96
-244
-255
-240
-166
-90
-198
-211
-273
-320
-119
-136
-307
-204
-143
-365
-357
-112
-192
-343
-327
-184
-320
-421
-86
-176
-397
-208
-188
-305
-190
-175
-266
-190
-164
-316
-302
-264
-357
-342
-179
-34
-107
-2
163
2
-24
136
9
-204
-109
-141
-385
-338
-228
-340
-422
-372
-393
-458
-418
-363
-391
-409
-315
-428
-464
-258
-349
-639
-718
-321
677
2148
3272
3127
1479
-371
-809
-517
-414
-261
-249
-238
-158
-419
-431
-192
-262
-313
-222
-214
-210
-141
-157
-166
-207
-296
-210
-85
-57
-155
-167
-43
-43
-117
-121
48
63
-81
21
51
-79
21
118
36
54
68
-34
184
463
432
375
382
565
588
494
641
640
592
778
936
745
581
749
661
468
548
399
162
320
255
60
64
-48
-188
-260
-233
-262
-366
-352
-283
-440
-555
-336
-278
-374
-356
-265
-284
-253
-290
-448
-324
-268
-330
-314
-210
-248
-430
-377
-253
-316
-342
-281
-386
-370
-245
-307
-396
-405
-334
-313
-252
-210
-500
-420
-191
-481
-440
-247
-326
-381
-283
-225
-415
-407
-253
-368
-496
-345
-301
-349
-324
-352
-326
-348
-312
-280
-347
-205
-63
-145
-189
-127
-84
8
66
-80
-121
-76
-192
-382
-407
-251
-352
-496
-290
-334
-497
-319
-351
-463
-338
-231
-351
-494
-378
-383
-489
-624
-750
-141
1080
2226
3108
2805
930
-686
-851
-449
-300
-304
-192
-110
-254
-294
-180
-268
-382
-179
-59
-299
-292
-69
-123
-176
-63
-114
-213
-94
-67
-133
-59
-108
-120
-21
-76
-18
87
45
-24
-24
115
224
191
138
136
183
169
279
335
333
503
455
402
581
661
519
587
767
738
679
749
900
820
634
587
540
399
356
313
185
104
27
-40
-136
-139
-146
-248
-235
-306
-489
-310
-150
-352
-311
-65
-174
-323
-191
-216
-349
-252
-128
-215
-295
-186
-208
-319
-276
-192
-327
-326
-13
-203
-393
-46
-138
-378
-189
-180
-288
-198
-156
-250
-298
-250
-245
-294
-291
-259
-332
-409
-451
-369
-192
-141
-156
-285
-278
-172
-277
-328
-202
-258
-362
-106
-82
-223
-116
-261
-185
94
92
89
-22
-29
63
-66
-132
-199
-389
-406
-191
-296
-471
-300
-311
-370
-316
-306
-481
-595
-309
-253
-381
-210
-330
-658
-435
305
1342
2367
3033
2336
294
-786
-621
-460
-259
-211
-305
-169
-192
-370
-372
-135
-63
-331
-246
-15
-82
-91
-67
-153
-135
-61
-77
-101
-3
-35
-235
-25
109
-116
-52
110
122
-11
-28
177
71
62
280
32
-21
253
251
357
428
406
465
525
628
548
537
729
725
707
859
842
636
625
832
691
347
456
609
325
97
225
136
32
65
-169
-169
-80
-271
-203
3
-214
-369
-220
-193
-305
-283
-149
-209
-327
-259
-155
-335
-235
17
-166
-177
-9
-189
-337
-141
-87
-218
-240
-146
-177
-182
-121
-194
-216
-131
-176
-311
-181
-71
-180
-183
-128
-344
-353
-124
-144
-285
-317
-55
-144
-364
-183
-141
-287
-193
-127
-248
-163
-120
-211
-147
-7
-26
-134
-68
41
31
78
160
-107
-320
-25
142
-74
-157
-153
-266
-151
-199
-416
-214
-65
-299
-364
-166
-176
-327
-232
-150
-220
-258
-475
-593
-299
554
1712
2570
3066
2244
-12
-1139
-506
-132
-175
-9
-14
-153
-150
-256
-263
-119
-35
26
-42
-7
47
-33
-23
-70
-196
-58
90
20
-33
107
78
-107
-9
195
174
3
108
226
7
-23
207
224
266
403
321
307
411
375
330
478
551
527
657
788
716
731
939
898
773
860
885
840
832
754
729
643
559
418
169
196
195
-24
-66
30
-13
-163
-193
-97
-182
-338
-201
-40
3
-13
-148
-224
-105
-80
-199
-104
-124
-328
-234
-116
-219
-159
-100
-271
-310
-168
-114
-158
-171
-155
-130
-80
-49
-98
-234
-301
-238
-186
-114
-141
-232
-177
-182
-118
-246
-478
-213
-169
-341
-262
-169
-220
-158
-104
-270
-185
-83
-175
-181
-128
-156
-249
-139
18
-27
110
193
2
65
110
-60
-92
-110
-179
-250
-229
-190
-321
-337
-152
-166
-335
-228
-181
-502
-407
-171
-334
-259
-90
-408
-741
-303
745
1868
2923
3251
1942
33
-795
-545
-218
-96
-17
-149
-164
-67
-158
-239
-123
-86
-147
-129
-159
-104
9
47
-65
-82
67
-37
-178
-89
54
0
20
97
-80
67
193
2
34
184
221
122
218
337
183
175
338
386
292
308
381
357
605
818
621
667
901
845
847
879
800
734
871
944
709
624
624
426
259
349
322
69
-111
-220
-173
-15
-17
-177
-255
-204
-191
-221
-211
-58
-224
-415
-179
-274
-285
-70
-175
-281
-153
-145
-329
-222
-223
-376
-239
-143
-136
-206
-219
-162
-249
-233
-122
-206
-240
-209
-242
-205
-280
-222
-203
-481
-345
-128
-259
-222
-147
-200
-501
-548
-155
-99
-192
-194
-238
-189
-107
-321
-440
-305
-283
-189
-52
-138
-156
28
-155
-299
41
129
-18
7
25
-135
-281
-342
-301
-231
-267
-245
-319
-359
-308
-461
-459
-198
-185
-303
-299
-311
-296
-437
-591
-570
-21
1441
2565
3110
2891
967
-657
-620
-236
-245
-324
-183
-108
-221
-146
-97
-231
-124
-93
-364
-262
80
-37
-141
76
20
-119
-26
53
30
-43
-5
52
-106
19
97
-333
-135
274
182
123
222
227
111
102
138
198
296
302
471
424
308
673
651
521
743
706
658
851
796
740
956
983
773
823
811
539
581
416
152
201
182
55
-22
-68
-266
-369
-172
-108
-182
-243
-258
-142
-207
-208
-158
-258
-225
-119
-279
-393
-143
-119
-335
-264
-136
-173
-225
-285
-301
-212
-271
-258
-140
-119
-83
-216
-388
-310
-146
-173
-149
-129
-295
-234
-156
-303
-281
-168
-193
-320
-296
-239
-230
-303
-424
-266
-174
-165
-171
-232
-217
-241
-318
-234
-149
-294
-255
-95
-198
-204
-98
-149
-135
66
131
47
-36
-132
-59
-232
-432
-274
-205
-190
-140
-320
-506
-284
-229
-364
-234
-265
-382
-209
-334
-566
-309
-265
-597
-576
495
1906
2880
3344
2230
78
-869
-455
-182
-235
-107
-64
-213
-262
-294
-171
-77
-132
-86
-79
-95
-117
-184
-263
-151
-52
-17
31
-38
-61
16
-87
-276
-9
233
97
92
191
60
114
262
-64
-247
22
294
312
324
415
351
356
445
449
475
598
710
658
686
835
790
520
713
1004
773
830
946
711
587
550
303
165
160
21
-74
-5
27
-146
-316
-215
-222
-383
-165
-110
-282
-211
-142
-243
-382
-303
-323
-393
-103
-62
-235
-107
-97
-324
-277
-125
-217
-216
-157
-224
-289
-250
-169
-245
-248
-212
-289
-345
-272
-224
-283
-225
-171
-122
-260
-310
-189
-242
-202
-192
-291
-341
-289
-422
-360
-76
-196
-249
-379
-486
-223
-110
-43
-28
-66
18
-28
-14
83
-111
-219
-82
-69
-227
-358
-357
-421
-388
-268
-313
-336
-278
-243
-517
-536
-194
-271
-306
-191
-311
-485
-516
-451
207
1463
2635
3216
2057
202
-755
-846
-311
-74
-189
-161
-121
-199
-275
-210
-87
-122
-189
-168
-182
-201
-93
-48
-74
19
-78
-217
2
0
-147
-28
55
77
-25
-60
35
29
74
147
25
26
225
-2
5
418
414
280
280
380
384
444
625
523
484
691
779
710
637
662
784
834
797
830
734
637
445
181
415
445
53
51
106
-51
-152
-196
-204
-236
-196
-147
-229
-212
-175
-347
-337
-192
-272
-264
-155
-261
-384
-236
-124
-172
-186
-118
-64
-264
-361
-168
-230
-242
-72
-160
-250
-190
-243
-439
-311
-124
-197
-206
-159
-153
-293
-323
-246
-421
-361
-154
-212
-273
-283
-315
-303
-152
-229
-349
-240
-254
-252
-210
-233
-250
-182
-150
-145
-76
-91
-78
16
18
-200
-249
-119
-220
-268
-254
-291
-270
-395
-403
-205
-312
-374
-203
-267
-387
-269
-198
-302
-312
-404
-554
-358
582
1763
2585
2891
1807
-65
-817
-477
-282
-353
-196
-83
-221
-194
-85
-173
-327
-217
-103
-192
-79
-58
-151
-86
-46
-161
-177
26
-36
-103
80
10
-208
-31
134
17
-28
10
74
53
112
181
76
67
244
173
63
223
328
409
460
505
475
440
586
532
598
843
738
680
826
796
538
482
629
594
516
457
243
46
79
-4
-146
-78
-23
-106
-184
-162
-161
-240
-371
-196
-136
-315
-171
-116
-248
-222
-209
-258
-200
-222
-312
-155
-53
-263
-274
-133
-192
-232
-119
-116
-172
-92
-139
-263
-244
-132
-165
-285
-153
-141
-338
-235
-115
-275
-270
-83
-236
-317
-138
-246
-238
-179
-228
-130
-143
-181
-210
-265
-240
-237
-216
-90
-19
-95
-176
-11
105
6
78
66
-74
-99
-221
-356
-285
-219
-296
-339
-230
-223
-287
-203
-193
-291
-314
-367
-353
-199
-169
-337
-487
-133
707
1763
2787
2984
1553
-321
-747
-389
-300
-168
-1
-194
-429
-277
-34
-16
-26
-20
-100
-61
17
8
-44
-176
-233
-25
91
-44
-34
87
45
-85
54
136
-16
50
160
79
8
187
270
3
152
374
145
206
429
360
203
329
573
539
577
660
515
623
812
826
823
854
959
879
815
783
525
489
629
510
324
340
303
78
108
-99
-344
-151
-90
-45
-116
-188
-166
-364
-284
-21
-114
-182
-66
-113
-209
-164
-184
-223
-226
-251
-229
-191
-112
-65
-279
-324
-89
-154
-199
-74
-170
-233
-207
-296
-266
-186
-231
-318
-218
-93
-177
-284
-239
-95
-261
-394
-132
-101
-253
-131
-73
-354
-433
-175
-159
-294
-220
-160
-207
-169
-170
-239
-79
43
-116
-114
89
49
-86
38
-31
-153
-88
-174
-255
-274
-250
-348
-421
-243
-228
-315
-249
-221
-331
-296
-175
-237
-336
-277
-307
-673
-293
1018
2121
2972
2989
1321
-363
-568
-422
-313
-47
-70
-252
-142
-14
-166
-160
-12
-132
-178
14
-42
-178
-51
-20
-168
-83
10
-36
-42
60
101
-49
-62
14
47
36
141
202
26
74
273
172
179
348
227
252
344
270
382
447
424
512
608
720
734
739
878
806
745
979
954
679
816
1006
829
685
697
562
322
319
259
-14
-55
44
-5
-102
-112
-151
-171
-111
-153
-116
-141
-145
-53
-163
-123
-100
-244
-140
-208
-213
-72
-153
-150
-157
-74
-110
-270
-157
-81
-92
-170
-115
-40
-213
-137
-84
-271
-187
-103
-207
-189
-238
-224
-108
-142
-136
-252
-363
-165
-90
-153
-102
-142
-216
-172
-213
-256
-233
-150
-129
-286
-286
-157
-232
-214
-56
-59
-27
-35
-108
4
146
76
46
43
-68
-112
-91
-114
-250
-205
-185
-332
-246
-108
-322
-419
-121
-156
-300
-188
-158
-217
-254
-336
-485
-492
196
1490
2588
3339
2869
747
-678
-516
-293
-320
-107
38
-217
-211
-17
-317
-254
134
7
-105
5
57
-33
-106
-1
-18
-58
63
15
-151
-8
135
30
64
68
-22
88
229
172
98
220
141
16
180
218
195
304
456
411
373
583
589
510
649
760
699
622
806
884
821
976
893
788
924
913
826
718
562
384
305
260
139
-82
-114
61
-78
-171
-86
-219
-225
-30
-115
-284
-163
-71
-205
-221
-73
-96
-265
-186
-62
-138
-147
-135
-251
-336
-106
-71
-338
-186
-23
-193
-110
-47
-260
-322
-227
-174
-243
-277
-190
-181
-155
-79
-150
-280
-301
-183
-221
-208
-112
-310
-355
-197
-322
-285
-103
-216
-308
-265
-185
-231
-291
-120
-93
-280
-199
-120
-270
-133
15
-233
-194
62
-83
-114
132
9
-135
46
61
-174
-292
-182
-181
-224
-227
-283
-289
-261
-245
-272
-389
-348
-206
-364
-393
-203
-289
-526
-534
-322
478
1812
2862
3385
2332
61
-883
-443
-187
-244
-187
-97
-259
-285
-66
-59
-222
-260
6
-48
-229
6
-24
-145
-35
-72
-106
-52
0
-14
-92
23
20
-79
-74
-12
52
93
183
19
68
247
134
226
359
314
337
303
246
405
427
442
527
626
744
611
630
850
896
844
930
983
828
785
893
812
447
327
465
322
177
207
44
-198
-35
77
-213
-272
-103
-245
-197
-92
-355
-253
-59
-192
-251
-131
-249
-354
-209
-114
-158
-274
-203
-182
-295
-225
-117
-156
-164
-175
-231
-199
-211
-368
-474
-308
-137
-144
-223
-192
-261
-346
-202
-225
-377
-430
-274
-283
-359
-273
-374
-355
-180
-275
-455
-343
-294
-386
-239
-105
-279
-363
-236
-321
-468
-299
-175
-351
-260
-2
-110
-222
-14
-9
-108
92
75
-215
-134
-66
-370
-369
-241
-279
-355
-428
-409
-439
-426
-334
-313
-344
-336
-325
-390
-337
-289
-420
-540
-594
-544
209
1619
2641
3109
2234
53
-918
-558
-284
-323
-312
-37
-103
-356
-246
-168
-278
-241
-123
-182
-295
-185
-189
-278
-190
-103
-118
-201
-97
-18
-89
-62
30
-90
-121
116
-14
-131
-94
-100
34
78
150
208
210
210
161
209
349
312
161
372
500
374
559
599
442
588
709
697
770
842
724
660
733
649
489
409
339
146
-20
2
-42
-161
-111
-222
-451
-267
-142
-222
-197
-304
-347
-325
-293
-202
-254
-296
-189
-178
-273
-210
-125
-272
-368
-184
-229
-255
-194
-285
-179
-155
-280
-278
-137
-187
-350
-201
-213
-369
-262
-134
-185
-347
-216
-244
-455
-219
-203
-332
-246
-259
-296
-388
-356
-206
-308
-299
-292
-462
-401
-272
-216
-346
-290
-150
-311
-309
-169
-87
-115
-63
45
8
-33
2
58
-174
-231
-119
-338
-341
-356
-443
-282
-267
-388
-394
-320
-393
-383
-328
-387
-360
-322
-344
-472
-656
-664
-367
587
1881
2832
2933
1555
-224
-899
-586
-287
-267
-229
-210
-206
-279
-247
-156
-168
-231
-293
-221
-224
-98
-78
-153
-75
-291
-364
-87
30
-42
-91
2
59
-308
-241
149
-18
8
137
19
19
119
-15
-143
106
309
243
228
354
282
43
211
585
601
573
678
567
662
857
514
483
768
720
660
652
633
389
111
276
256
25
60
5
-139
-213
-402
-441
-193
-138
-250
-287
-192
-251
-481
-311
-197
-460
-342
-164
-325
-337
-318
-333
-335
-246
-102
-184
-173
-144
-285
-204
-141
-314
-308
-175
-193
-247
-208
-351
-386
-239
-242
-190
-259
-274
-169
-531
-493
-49
-192
-282
-192
-153
-350
-532
-243
-243
-342
-123
-118
-295
-330
-224
-275
-202
1
-148
-116
140
-256
-344
198
123
-102
0
127
-249
-592
-263
-225
-380
-251
-247
-385
-422
-376
-398
-452
-332
-294
-393
-255
-256
-645
-641
-459
-492
332
1696
2623
3166
2265
153
-849
-651
-380
-248
-240
-282
-311
-311
-122
-32
-195
-161
-55
-162
-175
5
-264
-381
-53
-58
-134
-52
22
-96
-120
13
-119
-271
-66
154
68
105
111
34
87
156
174
120
253
272
242
355
359
269
417
621
524
519
684
692
588
654
847
808
850
854
602
754
807
633
597
516
416
328
85
-147
-39
-25
-39
-48
-187
-176
-136
-267
-263
-202
-417
-413
-164
-122
-225
-231
-149
-322
-371
-186
-244
-214
-69
-82
-267
-282
-116
-181
-232
-179
-144
-134
-150
-241
-310
-185
-170
-264
-231
-151
-92
-418
-465
-181
-387
-273
-63
-242
-238
-113
-355
-488
-237
-210
-275
-220
-157
-280
-356
-184
-212
-290
-217
-258
-312
-155
-157
-331
-60
203
94
51
-5
-33
-13
-27
-59
-237
-400
-347
-377
-421
-203
-192
-384
-331
-359
-581
-573
-315
-209
-297
-205
-182
-444
-535
-615
-242
1266
2643
3323
2917
1000
-549
-746
-361
-236
-467
-261
0
-155
-260
-88
-275
-594
-137
135
-97
-105
-19
-89
-123
-24
-67
-272
-165
78
-84
-80
34
-98
-101
130
213
-18
14
207
28
50
309
206
198
290
277
299
93
201
449
467
610
576
530
670
792
674
719
930
822
800
899
832
740
486
390
474
435
437
261
79
116
64
-226
-272
-124
-197
-137
-97
-249
-279
-166
-207
-375
-341
-327
-248
-111
-151
-224
-240
-199
-139
-182
-157
-128
-283
-305
-258
-209
-175
-204
-160
-169
-189
-205
-265
-200
-138
-190
-200
-179
-208
-394
-390
-208
-246
-239
-199
-230
-445
-369
-109
-278
-267
-134
-246
-266
-187
-234
-256
-208
-228
-297
-236
-66
-130
-174
-11
30
-32
23
-49
-168
60
76
-115
-147
-103
-226
-441
-320
-227
-425
-335
-124
-401
-446
-270
-347
-254
-227
-340
-303
-297
-514
-708
-440
513
1757
2754
3240
2262
151
-719
-488
-453
-166
8
-272
-292
-110
-141
-265
-121
-51
-296
-230
-63
-141
-153
-52
-132
-193
-78
-166
-145
18
-25
-165
-142
-49
6
69
111
164
46
36
134
68
34
134
220
213
268
381
192
52
507
497
305
733
752
491
711
830
730
791
756
788
868
868
790
591
614
461
31
59
212
101
29
53
-2
-243
-346
-209
-180
-179
-105
-203
-305
-87
-174
-577
-387
-129
-288
-273
-78
-161
-368
-297
-172
-175
-195
-168
-204
-335
-250
-211
-175
-6
-185
-349
-250
-198
-169
-188
-230
-213
-230
-302
-237
-125
-186
-291
-283
-230
-224
-250
-344
-335
-241
-185
-150
-282
-302
-139
-94
-165
-174
-112
-212
-326
-177
64
79
52
143
183
59
-13
75
-6
-56
-28
-153
-169
-119
-287
-341
-206
-201
-241
-159
-45
-308
-439
-82
-156
-254
-59
-141
-378
-453
-143
673
1791
2875
3244
1802
-165
-841
-602
-138
-15
-58
61
25
-171
-77
0
-148
-67
65
34
-58
12
80
-62
-80
11
48
21
-171
41
217
17
164
142
54
198
190
125
178
268
252
268
340
332
269
275
276
326
528
564
502
586
585
496
516
744
890
772
899
960
818
908
1013
841
671
757
632
446
463
361
184
107
33
-49
-128
-63
14
-216
-119
-25
-244
-72
-38
-205
-183
-21
-52
-353
-262
-70
-102
-83
-60
-105
-253
-263
-116
-162
-183
-89
-99
-36
-73
-244
-175
-134
-217
-139
-73
-164
-217
-148
-140
-215
-132
-189
-407
-328
-233
-177
-150
-166
-75
-173
-322
-222
-149
-175
-170
-181
-251
-142
-100
-534
-481
112
68
-143
43
115
-67
-236
28
208
82
114
-8
-217
-220
-231
-348
-303
-292
-408
-297
-99
-172
-447
-374
-202
-391
-341
-161
-288
-378
-478
-615
-149
1006
2261
3046
2972
1443
-372
-681
-377
-311
-272
-112
-34
-190
-136
16
-209
-374
-121
-53
-134
-22
-22
-97
-98
-177
-220
-93
19
-29
-56
80
128
-112
-100
123
-26
-19
213
127
2
161
248
97
108
246
216
116
344
459
327
433
392
348
641
852
725
676
769
797
782
802
891
774
718
758
610
329
117
276
214
89
180
11
-87
-13
-214
-394
-133
-107
-295
-191
-168
-331
-372
-303
-300
-249
-85
-148
-284
-130
-271
-478
-209
-141
-227
-197
-201
-220
-214
-242
-394
-303
-182
-144
-155
-257
-87
-241
-482
-199
-138
-306
-266
-188
-233
-305
-303
-269
-334
-263
-156
-298
-292
-360
-325
-67
-178
-270
-230
-200
-163
-321
-307
-173
-348
-253
9
-32
-106
-64
91
61
54
102
-49
-169
-102
-258
-399
-246
-235
-348
-357
-207
-213
-377
-432
-349
-365
-236
-166
-377
-287
-306
-689
-620
72
1150
2484
3386
2904
1003
-523
-534
-335
-294
-48
-135
-323
-159
-68
-253
-148
-38
-231
-83
62
-141
-216
23
78
-227
-106
53
-219
-75
146
25
-120
-53
141
76
75
106
81
119
146
163
188
235
266
124
140
473
440
292
507
675
547
492
572
595
786
902
816
876
997
988
800
824
972
686
658
654
366
288
184
128
30
16
33
-197
-248
-61
-54
-187
-195
-134
-117
-143
-176
-218
-211
-181
-288
-283
-94
-149
-205
-206
-243
-215
-325
-185
-74
-217
-59
-132
-410
-219
-161
-309
-186
-99
-213
-330
-201
-226
-391
-113
-37
-394
-415
-277
-312
-202
-137
-405
-383
-182
-309
-254
-203
-156
-221
-470
-261
-150
-348
-270
-106
-200
-169
-81
-253
-104
6
-136
-27
-1
-14
-26
-159
-297
-322
-200
-238
-331
-326
-332
-290
-356
-339
-248
-393
-588
-514
-212
-296
-390
-270
-603
-628
-77
879
2070
2911
2758
973
-700
-851
-579
-318
-130
-310
-287
-165
-235
-269
-219
-94
-251
-261
-4
-107
-232
-130
-165
-268
-119
-63
-109
-124
-83
-82
-277
-15
164
-151
-104
217
180
-135
-21
183
71
164
327
135
96
275
106
251
522
271
266
490
558
556
684
672
560
732
842
784
790
854
734
583
601
575
430
340
225
57
75
157
35
-42
9
18
-67
-86
-41
-130
-267
-260
-30
-11
-64
-97
-123
10
-8
-86
-87
-31
-11
-99
-55
0
-165
-151
11
-81
-171
-96
-38
-108
-89
-88
-299
-227
-104
-217
-264
-196
-155
-247
-191
-160
-336
-184
23
-165
-243
-45
-59
-136
-19
-77
-247
-221
-167
-190
-216
-330
-289
-154
-83
-40
-114
43
168
20
61
109
-153
-112
198
-34
-456
-468
-324
-350
-362
-274
-328
-552
-461
-233
-395
-403
-267
-456
-495
-178
-217
-718
-943
-496
568
1778
2825
3300
2190
296
-665
-638
-343
-181
-149
24
143
-156
-347
-229
-87
-87
-171
-92
-33
-25
30
-77
-24
287
160
-148
45
174
-219
-241
22
-110
30
145
-178
-75
74
55
97
83
209
201
69
51
213
412
376
286
490
694
596
480
625
959
859
605
884
1004
720
814
1019
848
904
891
634
565
673
636
157
47
289
69
-125
9
-209
-261
-62
93
-17
-306
37
-158
-541
-264
-261
-330
-266
-362
-310
-79
-382
-631
-53
76
-292
-233
-165
-138
-119
-221
-194
-144
-147
-228
-324
-312
-335
-219
-188
-286
-290
-386
-530
-334
-298
-476
-182
-409
-428
-244
-631
-900
-876
104
364
-290
-276
-280
-373
-394
-280
-243
-294
-167
-427
-482
-83
-151
-370
-143
184
27
-138
-48
-213
-249
-340
-643
-567
-449
-476
-242
3
15
-250
-286
-158
-461
-473
-172
-69
-536
-886
-725
-604
396
1843
2749
3213
2291
335
-855
-732
-247
223
59
-445
-214
-314
-310
129
183
-33
32
105
-134
-23
-21
-162
-65
-86
-171
-157
52
165
-70
-38
-1
-216
-112
-143
-50
-2
19
240
-3
-107
128
74
-7
315
232
61
443
303
300
691
296
156
468
455
375
417
569
414
332
682
801
506
252
295
295
111
-28
84
-15
-340
-244
-249
-498
-407
-207
-356
-358
-320
-505
-553
-706
-519
-461
-516
-402
-674
-503
-245
-602
-691
-434
-352
-293
-317
-581
-597
-213
-217
-550
-547
-457
-483
-468
-617
-780
-684
-537
-208
-367
-813
-578
-509
-829
-761
-349
-283
-272
-103
-434
-616
-540
-522
-487
-604
-473
-353
-253
-89
-379
-826
-593
-367
-617
-543
-317
-308
-293
-246
-401
-292
-26
80
-18
-442
-437
-445
-555
-493
-645
-432
-519
-876
-722
-700
-789
-692
-556
-624
-855
-717
-619
-819
-881
-879
-200
1258
2629
3039
1611
-336
-1070
-858
-729
-907
-733
-397
-488
-664
-726
-455
77
-285
-658
-224
-402
-471
-9
-55
-11
-448
-675
-210
-85
33
-326
-459
-366
-269
241
-22
-562
-649
-598
-379
-205
-158
52
14
-378
-436
-141
17
-306
-177
192
314
300
64
224
486
415
237
314
534
391
285
518
584
431
260
330
382
-55
-100
-200
-475
-325
-323
-250
-382
-544
-418
-379
-602
-596
-380
-572
-626
-463
-497
-604
-725
-828
-810
-803
-872
-715
-862
-1068
-871
-945
-770
-774
-1020
-525
-350
-455
-470
-686
-324
-66
-326
-181
-107
-460
-523
-376
-453
-468
-401
-462
-590
-597
-392
-312
-471
-521
-361
-283
-372
-491
-375
-376
-509
-308
-243
-293
-237
-301
-17
113
-37
177
325
227
-55
-109
-22
-175
-247
-157
-134
33
73
-268
-335
-106
-58
-337
-291
-31
-203
-271
-8
-136
-538
-418
-105
474
1811
3119
3590
2498
337
-743
-412
36
48
-6
125
104
-275
-171
415
72
-334
-78
-145
-59
215
201
414
377
245
505
218
292
435
-1
216
172
-102
259
381
28
5
206
-18
-246
-225
-150
-32
20
165
233
101
170
347
374
179
200
626
643
495
918
972
525
647
978
1033
889
558
374
782
1122
506
158
173
43
230
164
-450
-269
669
323
-562
-568
-117
141
-246
-533
-347
-337
-391
-394
-337
-238
-542
-527
-39
-212
-507
-253
-135
-307
-248
-38
-191
-425
-63
192
-162
-278
-242
-335
-194
-112
-2
144
39
-91
-111
5
200
115
122
403
238
-73
120
165
25
85
-86
-53
50
211
225
-73
62
128
207
364
164
30
41
224
434
232
-120
-201
-119
133
23
-289
108
344
-227
-463
-35
56
-125
-72
543
851
475
826
840
364
796
1748
2657
3591
4103
2770
805
529
782
592
861
1141
998
817
829
571
284
700
785
373
521
662
215
112
425
393
193
211
221
99
198
289
106
56
197
8
-145
246
286
56
44
16
99
80
212
410
481
61
-473
-228
-19
-135
-509
-485
-228
-421
-623
-611
-541
-316
72
-69
-330
-77
96
-273
-514
-164
-88
-140
134
-22
-375
-269
-168
-322
-206
-121
-218
-251
-510
-538
-345
-253
13
37
37
251
-20
-118
224
38
-151
57
99
-6
-190
-100
166
178
268
284
68
-3
248
204
-76
-141
-419
-128
393
35
-241
-147
-96
-282
-225
126
-105
-260
96
261
-138
-614
-449
65
-125
-385
-188
-202
67
102
-309
-285
-98
103
134
-91
-143
-236
-103
478
553
5
-210
-369
-337
117
-104
-386
-148
-233
-596
-540
-253
-384
-565
-181
43
-121
-300
-726
-257
940
1824
2846
2630
768
-639
-848
-607
-586
-436
-7
112
-130
-120
-116
-421
-213
-298
-585
-211
-132
-292
-213
-159
-14
180
-187
-468
-202
-198
-266
-195
-402
-626
-480
-345
-279
-171
-321
-360
-20
191
176
-108
-247
38
-37
7
194
106
184
420
304
302
666
551
517
453
298
484
647
753
655
536
794
783
412
404
280
293
408
305
363
393
476
125
-285
9
311
333
60
-11
428
203
116
498
115
98
272
-313
-330
424
538
200
288
529
569
490
385
261
255
541
670
483
334
415
360
255
531
494
206
292
249
277
620
322
-5
323
540
288
255
702
589
271
217
30
-24
24
41
-193
-289
32
78
-113
-383
-305
252
376
-170
-482
13
151
-258
-361
-63
74
-195
-153
-34
-35
93
102
1
66
75
-35
-52
-49
120
-239
-557
-54
398
1585
3018
3444
3085
1001
-1057
-1176
-718
-375
-364
-612
-525
-264
-470
-574
-359
-305
-407
-375
-178
-98
-18
25
-110
-81
-51
-447
-548
-693
-1277
-771
-187
-609
-857
-908
-739
-496
-610
-363
-40
-50
95
153
118
206
245
220
304
391
347
315
409
316
173
316
328
119
23
-112
-301
-90
287
232
146
511
331
-130
163
237
12
135
342
223
49
225
278
339
568
651
479
144
286
511
223
134
260
168
29
130
256
54
211
437
283
404
423
105
162
416
240
107
184
98
-68
-29
161
144
-1
36
23
-182
31
168
-69
59
50
-22
91
-139
-184
236
351
21
-59
280
284
-154
29
365
149
198
376
40
-55
36
-19
59
-310
-367
-142
-18
49
-270
-111
27
-63
-105
-279
-239
-287
-411
-123
-134
-525
-383
-353
-153
935
2034
2732
2507
858
-637
-932
-514
-30
-132
-216
57
89
-169
-166
13
147
290
265
229
70
-200
55
424
416
355
377
404
267
365
444
317
461
563
495
441
325
552
509
59
312
577
276
184
470
288
183
545
556
554
620
659
574
448
633
613
447
493
770
869
686
864
792
382
512
689
596
446
186
164
138
70
122
-225
-300
-115
-190
-127
-58
-212
-118
136
13
90
186
68
130
246
226
271
389
70
114
497
401
438
401
340
448
323
181
283
363
160
160
287
223
178
231
321
255
146
96
77
51
37
-39
-113
-43
24
-24
-89
-81
-35
98
-180
-481
-211
-14
39
94
105
1
-126
-96
-60
-414
-1074
-845
-517
-958
-1066
-951
-1111
-1307
-1109
-937
-891
-842
-1013
-955
-738
-700
-757
-748
-735
-739
-241
788
1851
2627
2270
380
-1089
-985
-655
-564
-428
-444
-524
-395
-600
-936
-610
-201
-308
-504
-161
103
-137
-242
-146
-92
-126
-57
-132
-307
-126
31
49
7
93
21
-143
58
71
6
223
266
-14
25
248
296
190
75
212
225
36
-13
150
395
292
100
309
431
168
38
274
455
655
586
338
231
14
130
179
-145
-125
-74
-327
-184
-14
-416
-540
-288
-314
-518
-420
-294
-506
-459
-356
-302
-183
-308
-344
-336
-379
-260
-363
-481
-157
-244
-602
-308
-117
-263
-104
-90
-263
-261
-132
-245
-517
-165
36
-200
-145
-45
-215
-335
-295
-246
-61
-92
-293
-148
247
266
-23
2
120
128
85
137
164
-132
-184
-115
-266
-364
-182
-33
-194
-203
-176
-234
-41
51
-166
-203
-134
-194
-278
-276
-453
-694
-6
1080
1790
2590
2358
379
-1059
-900
-494
-383
-260
-154
-262
-483
-354
-117
-149
-110
-13
-204
-283
-46
-140
-225
-114
-75
-144
-150
-5
-133
-196
-152
-270
-5
220
-32
-125
-4
88
69
91
244
176
97
124
245
429
264
137
238
441
541
443
377
481
798
639
500
610
355
655
1095
758
744
1035
702
440
432
315
335
276
279
182
-151
38
75
-232
-58
103
-207
-309
-49
-156
-254
-76
-117
-238
-112
37
-103
-117
-10
-154
-54
33
-179
-212
-155
-147
-153
-105
-96
-324
-465
-248
-265
-516
-483
-368
-322
-242
-232
-473
-424
-61
-169
-241
-115
-110
-213
-254
103
151
-31
-44
-42
-91
-107
-220
-451
-251
-213
-476
-353
-289
-374
-498
-640
-426
-319
-316
-209
-375
-406
-204
-234
-384
-358
-542
-601
476
1872
2519
2754
1887
-36
-912
-492
-92
-22
172
416
311
174
255
194
112
14
40
205
289
294
-54
-69
226
50
-82
118
20
-233
-100
21
-106
-216
-138
-334
-594
-356
-260
-345
-460
-381
-138
-75
73
98
60
165
290
171
114
369
474
571
569
441
520
554
625
853
851
850
863
713
862
822
430
420
471
386
410
319
92
-5
75
16
-85
-21
-186
-284
-31
-68
-158
-18
-21
-46
-111
-95
4
-122
-171
-75
-134
-240
-244
-154
-227
-184
12
-350
-401
-67
-380
-435
-155
-345
-531
-260
-38
-179
-164
-30
-91
-201
-61
71
12
50
101
47
243
323
148
157
344
400
138
87
42
-67
109
173
-27
-34
-112
-106
-4
-115
-28
-13
-30
-9
-164
-95
121
-98
-538
-567
-179
576
1851
3046
3052
1519
-118
-694
-662
-258
-78
-189
-75
-128
-205
-138
-156
-224
-197
-116
-190
-237
-176
5
-35
-187
-69
-224
-343
-48
27
-215
-180
123
160
60
102
108
2
9
177
152
159
270
126
132
406
283
226
453
263
232
443
428
522
596
653
683
634
756
751
697
758
670
613
698
710
591
392
160
77
190
22
-117
-3
-139
-218
-146
-45
-80
-194
-94
-100
-210
-218
-207
-217
-150
-135
-183
-130
-137
-134
-187
-212
-144
-151
-95
-157
-202
-155
-192
-189
-93
-50
-417
-341
-39
-227
-221
-306
-275
-105
-175
-174
-196
-169
-158
-214
-28
-89
-266
-11
53
-161
-182
144
249
46
-50
-134
-210
-241
-237
-363
-363
-282
-341
-361
-551
-487
-277
-451
-333
-208
-328
-348
-333
-407
-637
-636
-457
317
1683
2494
2898
1835
-346
-911
-548
-416
-279
-173
-203
-336
-253
-53
-258
-455
-46
-14
-303
-145
23
-19
-56
2
-54
-135
-143
21
128
-145
-120
24
-38
210
189
42
184
244
167
88
152
219
349
316
152
189
330
212
-29
296
742
682
468
537
645
585
620
765
749
579
702
800
650
706
683
368
263
353
153
115
91
-160
-120
-59
-91
-141
-153
-97
-90
-154
-154
-143
-128
-77
-150
-135
-175
-159
-98
-190
-104
39
-64
-149
-61
-137
-81
3
-104
-189
-109
-64
-157
-84
-125
-134
-121
-152
-160
-250
-156
-145
-184
-27
-81
-171
40
169
-101
-54
240
79
45
111
108
118
-65
-149
-143
-190
-284
-229
-193
-284
-287
-352
-257
-257
-279
-339
-355
-200
-331
-335
-260
-386
-569
-626
15
1367
2591
3008
2295
554
-768
-585
-150
-260
-198
-84
-149
-148
-228
-107
46
-156
-71
58
-281
-335
1
176
114
40
66
109
16
129
69
-148
183
112
23
291
162
52
285
329
79
202
344
233
273
368
464
598
525
240
405
767
794
713
511
527
822
665
418
717
808
703
826
791
647
618
516
219
166
221
26
28
86
-210
-357
-186
-214
-345
-233
-159
-297
-320
-303
-323
-426
-396
-240
-275
-196
-143
-295
-313
-304
-359
-280
-196
-285
-261
-197
-322
-357
-220
-190
-417
-337
-195
-325
-390
-414
-382
-606
-575
-169
-285
-381
-302
-410
-328
-94
-151
-259
-40
69
-65
-201
-26
74
-70
-145
-254
-393
-545
-413
-394
-581
-506
-578
-579
-531
-606
-635
-641
-605
-644
-685
-701
-664
-850
-1046
-819
-47
1155
2356
2803
1744
-230
-1209
-867
-656
-552
-504
-442
-357
-550
-402
-229
-307
-402
-388
-248
-362
-438
-274
-228
-197
-176
-270
-234
-135
-163
-136
-97
-117
-163
-192
-107
-59
-99
27
84
-166
20
272
52
130
260
218
170
139
315
288
332
601
567
512
647
623
554
762
784
609
637
746
555
352
626
593
178
206
219
0
50
-129
-246
-164
-217
-171
-193
-232
-261
-272
-382
-327
-194
-217
-78
-175
-344
-110
4
-248
-227
11
-127
-260
-31
-142
-467
-93
31
-414
-338
-138
-163
-174
-297
-269
-147
-173
-226
-352
-263
-30
-157
-263
22
120
14
-14
94
33
-275
-55
4
-384
-348
-183
-253
-281
-310
-516
-383
-133
-307
-369
-378
-453
-350
-268
-297
-368
-404
-357
-587
-723
110
1113
2133
3363
2992
876
-570
-627
-449
-411
-145
-187
-405
-187
-97
-150
-117
-91
-183
-185
-142
-231
-187
-42
9
-34
-69
-5
-27
-133
-33
100
-23
-42
67
7
65
180
114
3
116
155
99
275
266
170
137
289
507
459
491
502
478
622
687
617
675
832
794
808
934
903
726
768
820
355
328
586
316
197
133
-44
-73
-136
-101
-107
-192
-101
-48
-234
-275
-92
-122
-246
-298
-303
-284
-209
-89
-169
-248
-260
-226
-46
-58
-150
-88
-91
-305
-276
27
-24
-241
-310
-193
-95
-126
-77
-156
-245
-106
-203
-457
-120
97
-218
-262
79
182
7
151
162
-9
-56
-21
-91
-325
-180
-181
-621
-384
-208
-566
-340
-292
-502
-344
-241
-408
-592
-372
-232
-367
-375
-546
-783
-528
507
1712
2821
3437
2007
-243
-855
-511
-593
-401
38
-115
-262
-121
-225
-308
-99
-103
-313
-310
-141
-186
-222
40
47
-495
-394
107
-38
-21
74
-66
-35
105
68
-95
-15
132
47
42
229
104
-55
163
272
21
117
350
202
343
531
356
256
498
745
627
592
797
715
666
823
751
671
726
690
482
203
251
295
158
30
-78
-79
-150
-276
-375
-224
-144
-313
-334
-330
-313
-202
-151
-294
-413
-290
-250
-371
-275
-206
-333
-402
-355
-357
-376
-180
-225
-420
-268
-172
-276
-363
-278
-253
-398
-248
-257
-518
-350
-289
-438
-396
-529
-468
-245
-253
-245
-394
-535
-375
-193
-133
-158
-240
-226
-111
3
1
-98
-30
-77
-181
-107
-241
-373
-372
-435
-416
-471
-492
-412
-471
-420
-335
-456
-491
-374
-398
-443
-407
-364
-554
-881
-687
138
1520
2835
3349
2386
195
-931
-759
-497
-319
-265
-223
-254
-320
-277
-220
-275
-297
-197
-311
-468
-208
-81
-187
-89
-142
-238
-147
-117
-75
-117
-132
-43
-124
-61
34
26
110
-40
-62
61
120
105
-8
153
327
211
171
334
371
389
507
499
458
602
637
524
634
814
736
705
810
811
812
702
524
383
244
175
73
-2
-33
-89
-127
-192
-231
-249
-340
-327
-217
-205
-228
-296
-405
-330
-215
-253
-302
-292
-222
-352
-454
-234
-157
-365
-344
-203
-312
-271
-150
-266
-449
-493
-306
-279
-493
-359
-288
-318
-248
-286
-252
-289
-446
-371
-191
-356
-457
-330
-373
-420
-339
-365
-436
-324
-245
-504
-445
-82
-171
-281
-8
149
2
-59
-14
-60
-181
-329
-466
-508
-314
-313
-543
-456
-299
-424
-539
-460
-479
-535
-448
-505
-578
-493
-450
-414
-575
-777
-420
520
1635
2887
3147
1425
-605
-1101
-711
-442
-372
-408
-318
-231
-347
-415
-300
-407
-360
-159
-360
-393
-281
-254
-230
-211
-122
-176
-332
-455
-263
-42
-116
-92
-87
-60
-12
-152
-125
-55
-168
-148
31
100
88
141
155
159
50
58
319
346
310
414
428
498
533
376
515
736
599
594
739
563
367
458
505
373
97
-7
79
-39
-114
-116
-271
-306
-244
-306
-292
-170
-271
-443
-327
-358
-542
-370
-60
-198
-379
-174
-187
-402
-224
-168
-440
-397
-211
-218
-353
-331
-370
-409
-146
-157
-376
-314
-169
-422
-521
-215
-204
-379
-385
-261
-383
-458
-175
-288
-566
-324
-272
-339
-214
-292
-324
-382
-446
-198
-126
-241
-316
-236
45
61
-72
-12
120
-42
-282
-143
-21
-262
-385
-302
-463
-515
-254
-308
-513
-450
-493
-452
-238
-301
-511
-435
-252
-321
-619
-759
-450
77
1103
2310
2939
2309
355
-893
-806
-434
-211
-280
-316
-305
-338
-312
-252
-218
-167
-32
-68
-188
-216
-186
-157
-185
-8
3
-191
-156
-74
-104
-171
53
38
-48
191
8
-73
207
148
-24
162
359
174
38
246
291
218
341
350
336
426
495
554
590
648
711
765
788
750
700
712
838
653
599
774
465
321
367
205
100
178
126
-133
-81
-31
-170
-221
-189
-184
-281
-203
-13
-103
-287
-95
-118
-344
-114
-67
-248
-97
-76
-348
-208
83
-134
-239
-99
-177
-175
-67
-84
-201
-134
-81
-213
-211
-101
-98
-276
-236
-150
-224
-214
-296
-206
-113
-214
-130
-204
-332
-209
-80
-101
-143
-190
-189
-113
-177
-282
-305
-151
-90
-41
105
-34
-86
34
114
220
133
58
148
101
64
-40
-300
-309
-120
-185
-207
-86
-308
-521
-357
-279
-295
-105
-76
-296
-396
-260
-156
-326
-491
-439
184
1522
2712
3289
2424
384
-729
-588
-347
-420
-206
93
21
-130
-111
-15
-287
-287
78
-53
-180
-57
2
-103
-181
-87
-28
13
86
30
-55
22
16
-10
165
177
42
71
194
209
-38
2
253
202
276
397
350
346
249
160
433
653
672
620
608
735
688
744
748
720
885
947
875
760
631
501
447
470
454
337
239
70
-48
-122
-112
-15
-162
-236
-215
-325
-303
-160
-154
-212
-62
-192
-384
-156
-155
-207
-220
-206
-143
-230
-220
-150
-170
-311
-217
-126
-253
-92
-120
-328
-170
-170
-306
-207
-143
-289
-252
-121
-212
-235
-172
-227
-381
-387
-236
-125
-193
-173
-126
-319
-321
-229
-385
-312
-108
-220
-287
-95
-200
-460
-197
-7
-225
-237
-121
-286
-102
67
-52
26
79
138
6
-31
92
-57
-276
-333
-343
-328
-180
-232
-407
-381
-336
-302
-222
-251
-359
-487
-364
-112
-213
-359
-482
-631
180
1775
2814
3306
2339
89
-810
-446
-142
-146
-259
-92
-191
-263
-162
-241
-172
-79
-43
-119
-149
-67
-5
-65
-71
-68
-191
-50
56
-59
-54
-20
-10
-7
154
173
-89
29
25
34
263
271
291
60
69
414
250
178
459
418
351
538
617
590
630
642
617
651
756
848
815
855
972
730
565
697
570
376
376
268
187
105
-199
-246
-86
-95
-198
-206
-165
-155
-283
-356
-161
-199
-326
-178
-187
-213
-49
-178
-366
-284
-157
-211
-260
-154
-145
-123
-183
-252
-258
-177
-137
-300
-326
-253
-207
-208
-172
-172
-371
-429
-141
-90
-286
-234
-266
-284
-157
-316
-337
-119
-208
-297
-224
-282
-400
-349
-203
-325
-336
-173
-201
-279
-218
-219
-300
-132
-18
-66
-103
-7
100
-27
-75
-72
10
72
-11
-196
-280
-130
-311
-382
-166
-165
-349
-391
-198
-276
-378
-321
-388
-405
-373
-251
-323
-757
-692
-340
248
1631
2886
3367
2562
457
-834
-640
-232
-82
-238
-262
-151
-264
-165
-96
-240
-141
-44
-109
-97
-10
37
-82
-206
-83
-15
-59
8
-91
-161
25
-122
-158
207
206
63
88
214
193
61
244
285
81
247
218
69
346
489
319
252
508
594
500
604
722
778
780
841
857
814
908
897
775
693
678
521
389
446
323
31
-130
-13
-21
-26
69
-232
-364
-101
-115
-203
-213
-202
-173
-253
-196
-250
-333
-92
-25
-187
-183
-103
-174
-184
-97
-182
-227
-240
-242
-202
-133
-64
-161
-225
-194
-196
-328
-220
-200
-363
-106
-75
-284
-221
-186
-254
-302
-310
-241
-235
-272
-204
-269
-275
-207
-415
-292
-195
-422
-300
-143
-193
-336
-243
-93
-267
-297
-154
-72
-94
-109
-78
-192
-33
266
152
23
21
10
-98
-109
-82
-227
-207
-218
-401
-329
-228
-329
-335
-324
-255
-369
-372
-266
-474
-296
-126
-458
-679
-456
387
1760
2926
3405
2236
36
-733
-506
-389
-128
-106
-273
-191
-40
-145
-254
-140
-70
-258
-264
-84
-178
-76
85
-36
-197
-111
60
-66
-106
-74
-28
47
82
91
-26
93
162
4
183
331
75
113
374
250
240
434
321
215
440
576
540
640
710
561
616
906
863
820
938
858
718
761
943
843
697
704
471
248
234
215
58
61
91
-192
-305
-139
-100
-200
-81
-62
-282
-294
-302
-294
-234
-159
-148
-183
-107
-265
-451
-295
-70
-96
-143
-112
-252
-281
-140
-190
-219
-200
-193
-240
-319
-155
-165
-430
-354
-122
-192
-237
-192
-311
-290
-180
-296
-405
-267
-192
-284
-413
-313
-92
-344
-396
-150
-306
-297
-178
-376
-310
-114
-257
-257
-163
-349
-370
-259
-140
-78
-104
-1
-5
-34
53
50
-41
-15
-45
-137
-171
-373
-399
-211
-300
-525
-438
-169
-319
-475
-294
-306
-438
-374
-257
-323
-323
-314
-621
-711
-26
1163
2285
3177
2851
712
-846
-688
-419
-352
-152
-187
-293
-235
-105
-172
-326
-153
-125
-184
-74
-103
-215
-246
-115
-56
-188
-192
-49
-115
-128
-18
-183
-117
112
-73
-81
104
70
86
162
137
138
199
138
172
227
216
306
353
422
524
467
438
544
634
608
586
674
719
800
889
761
561
663
676
460
435
312
190
219
95
-148
-202
-70
-219
-262
-196
-305
-203
-300
-323
-211
-361
-393
-303
-306
-368
-303
-241
-166
-128
-340
-350
-138
-165
-202
-289
-359
-268
-204
-138
-225
-353
-304
-282
-236
-148
-266
-396
-405
-292
-235
-224
-258
-419
-368
-258
-351
-371
-269
-144
-203
-356
-252
-279
-354
-271
-232
-329
-336
-286
-427
-367
-204
-277
-354
-315
-225
-186
-183
-122
-62
-61
-13
-9
-181
-125
26
-175
-414
-247
-208
-397
-301
-380
-351
-227
-281
-356
-273
-146
-541
-558
-203
-178
-291
-449
-613
-518
544
1800
2619
3091
1915
-154
-911
-631
-325
-219
-209
-98
-122
-272
-266
-202
-254
-132
-25
-280
-245
92
-94
-281
50
69
-169
-138
-45
13
35
-39
97
104
41
102
100
165
46
2
147
150
123
240
299
168
271
483
449
384
414
552
536
585
749
672
644
714
824
800
834
981
891
770
756
723
509
406
407
246
121
117
-45
-290
-218
-150
-126
-30
-41
-144
-246
-170
-179
-266
-123
-173
-299
-171
-147
-244
-317
-274
-132
-165
-198
-193
-293
-137
-27
-206
-108
-36
-312
-298
-155
-204
-215
-207
-176
-337
-358
-95
-241
-382
-102
-159
-347
-220
-192
-260
-249
-262
-293
-304
-39
42
-484
-387
-140
-320
-203
-137
-261
-287
-260
-297
-251
-214
-226
-207
-161
-59
2
6
43
-35
-57
46
-74
-92
21
-21
-74
-225
-310
-199
-249
-255
-207
-359
-310
-93
-257
-388
-162
-294
-327
-73
-191
-500
-716
-462
629
1946
2898
3328
2175
47
-730
-430
-270
-170
-131
-101
-31
-91
-165
-102
-34
-190
-224
77
22
-191
-72
-78
-150
13
114
8
-41
30
-71
-134
112
224
97
106
162
-16
28
318
247
143
243
217
181
173
277
437
435
560
541
371
479
622
701
735
881
891
800
911
872
753
820
807
757
780
545
416
378
283
103
14
150
-2
-184
-112
-119
-186
-289
-286
-174
-226
-187
-159
-352
-418
-233
-144
-161
-72
-82
-214
-161
-142
-305
-191
-76
-219
-164
-160
-390
-320
-68
-182
-340
-165
-124
-261
-298
-283
-223
-279
-147
-83
-441
-317
-62
-213
-300
-226
-238
-283
-153
-333
-423
-161
-252
-366
-334
-275
-121
-237
-370
-232
-125
-175
-309
-387
-244
-97
-184
-264
-299
-341
-209
-152
-171
4
95
61
-10
-133
-56
59
-124
-214
-196
-330
-270
-162
-258
-325
-315
-303
-390
-257
-187
-566
-400
-8
-273
-464
-335
-490
-589
83
1239
2288
3262
3190
1292
-518
-813
-331
-114
-174
-115
-169
-227
-86
-209
-262
-30
-70
-211
-160
-19
-89
-94
54
-16
-101
-51
22
-247
-379
28
75
68
86
-154
-12
193
51
29
158
151
76
214
306
179
155
224
345
427
442
394
365
581
690
638
737
817
781
675
783
982
796
779
1011
754
491
581
470
244
197
-41
-186
-20
25
-95
-207
-81
-160
-444
-339
-143
-146
-126
-112
-326
-316
-198
-227
-265
-236
-137
-267
-253
-96
-177
-166
-180
-317
-297
-271
-207
-284
-279
-43
-197
-271
-103
-258
-296
-145
-242
-298
-219
-211
-213
-239
-248
-239
-396
-340
-232
-271
-187
-152
-207
-332
-259
-186
-299
-213
-180
-282
-258
-277
-328
-304
-294
-313
-329
-213
-106
-205
-227
-166
-211
-170
11
-23
-78
-58
-43
-5
-32
14
-47
-215
-300
-313
-309
-343
-261
-275
-317
-106
-294
-470
-168
-289
-368
-163
-222
-321
-457
-615
-654
147
1595
2551
3305
2861
711
-731
-647
-202
-147
-231
-73
-36
-187
-263
-146
-141
-198
-28
-45
-176
-168
-71
-154
-94
56
-178
-94
133
-70
-198
59
96
-98
91
222
37
-59
158
255
75
145
176
176
328
231
165
398
560
466
380
518
590
417
564
786
609
761
1040
887
829
966
952
805
747
724
691
569
424
370
93
-64
82
-70
-217
-83
-155
-216
-103
-160
-178
-153
-264
-296
-268
-219
-210
-172
-130
-189
-222
-242
-223
-282
-296
-99
-298
-371
-75
-200
-312
-167
-231
-293
-156
-179
-221
-240
-237
-190
-253
-150
-134
-338
-277
-209
-320
-309
-248
-332
-490
-347
-141
-306
-251
-141
-239
-298
-325
-306
-226
-140
-229
-310
-132
-236
-578
-351
-201
-292
-224
-236
-258
-257
-266
-207
-139
-38
18
-148
-54
188
-15
-157
-121
-47
28
-179
-212
-186
-307
-203
-236
-441
-286
-183
-400
-363
-244
-418
-406
-106
-93
-341
-509
-636
-382
835
2190
3038
3297
1798
-361
-801
-337
-188
-164
-41
-32
-258
-215
-104
-178
-79
-51
-98
-100
-142
-27
-42
-117
-5
-188
-300
91
271
25
-88
102
142
55
191
226
12
92
251
98
93
323
376
156
219
449
337
242
422
537
429
571
793
704
761
901
752
730
874
886
887
861
882
945
852
793
660
499
404
174
112
276
197
-105
-22
-91
-359
-116
-104
-252
-91
-179
-330
-207
-89
-156
-292
-200
-215
-283
-126
-84
-148
-214
-203
-98
-89
-160
-44
-136
-389
-177
-82
-160
-86
-198
-309
-213
-231
-400
-310
-134
-231
-228
-140
-258
-353
-254
-208
-297
-187
-106
-248
-213
-186
-414
-433
-244
-232
-290
-207
-286
-365
-207
-189
-216
-218
-205
-161
-238
-196
-27
-140
-206
-53
-22
-9
-60
-59
21
-23
-13
-139
-341
-284
-235
-289
-316
-240
-219
-346
-236
-249
-428
-318
-271
-342
-259
-169
-360
-608
-570
73
1346
2580
3419
2880
765
-635
-628
-383
-64
-54
-226
-121
-166
-240
-211
-105
-60
-203
-122
-48
-178
-47
1
-135
3
53
-71
-2
-6
-71
-38
-26
23
16
82
153
70
29
190
181
56
353
333
80
181
249
359
492
580
500
398
584
632
552
701
800
738
794
870
854
811
975
1058
830
749
716
472
436
350
88
191
83
-201
-126
-105
-124
-119
-314
-230
-127
-341
-286
-145
-253
-274
-231
-357
-216
-32
-196
-341
-143
-59
-353
-203
-84
-344
-160
-99
-330
-260
-224
-287
-210
-229
-164
-83
-218
-143
-167
-344
-241
-180
-271
-381
-277
-215
-331
-240
-290
-402
-265
-192
-289
-214
-181
-314
-261
-178
-195
-290
-280
-251
-362
-236
-225
-423
-235
-176
-400
-221
80
50
-164
-109
132
81
-9
-58
-136
-98
-148
-273
-424
-461
-201
-205
-335
-247
-364
-429
-313
-426
-462
-219
-121
-218
-354
-423
-555
-706
-22
1396
2403
3294
3012
606
-817
-511
-363
-383
-174
-72
-196
-145
-122
-290
-127
21
-319
-339
-118
-188
-180
-93
-59
-109
-66
-27
-36
36
24
-34
-145
4
176
11
-24
130
91
53
54
87
172
172
376
368
225
392
396
296
464
540
449
572
710
665
630
807
814
626
901
1025
789
825
750
650
701
540
360
284
277
149
-115
-88
1
-290
-361
-141
-264
-334
-193
-160
-214
-241
-217
-342
-333
-279
-415
-303
-109
-159
-257
-142
-219
-369
-209
-152
-258
-336
-250
-230
-260
-221
-237
-346
-390
-161
-154
-304
-258
-275
-457
-404
-197
-275
-347
-210
-269
-313
-138
-269
-453
-342
-244
-239
-316
-355
-381
-464
-310
-246
-342
-299
-249
-325
-373
-177
-99
-172
-28
-23
-249
-152
-31
-201
-161
-133
-196
-340
-510
-272
-225
-385
-322
-433
-434
-256
-294
-414
-450
-378
-313
-290
-307
-568
-717
-301
739
2048
3060
3018
1242
-585
-828
-550
-422
-207
-210
-236
-112
-347
-375
-162
-249
-192
-96
-81
-160
-284
-157
-72
-134
-56
-106
-215
-114
-3
-99
-180
-37
-28
-65
23
-58
-45
166
280
243
27
41
252
138
150
297
238
296
462
520
416
463
635
652
652
771
764
728
788
801
813
764
705
641
498
282
231
307
245
129
-17
-127
-270
-352
-173
-106
-258
-251
-204
-362
-350
-226
-301
-375
-281
-153
-270
-323
-217
-304
-269
-140
-261
-459
-369
-222
-256
-226
-148
-143
-144
-190
-271
-306
-311
-219
-266
-269
-103
-209
-374
-235
-202
-360
-390
-249
-183
-212
-265
-423
-372
-187
-169
-350
-410
-334
-254
-284
-284
-167
-356
-261
-86
-245
-117
-38
-239
-190
73
30
-122
-53
-177
-315
-195
-234
-382
-264
-184
-458
-433
-198
-234
-459
-467
-244
-489
-448
-61
-253
-558
-544
-551
-269
774
1902
2680
2683
1257
-493
-951
-604
-431
-353
-171
-150
-298
-272
-175
-203
-232
-185
-111
-101
-113
-87
-261
-314
-28
-29
-141
-77
-140
-229
-134
-72
-87
-65
-24
35
4
70
153
-41
-44
183
105
141
250
119
150
259
246
271
301
429
596
428
441
701
646
643
684
696
830
776
627
637
622
484
436
393
55
-175
4
41
-73
35
-64
-241
-134
-103
-176
-334
-282
-107
-227
-333
-219
-250
-335
-114
-175
-437
-222
21
-116
-215
-172
-284
-225
-106
-209
-290
-289
-106
-82
-261
-310
-248
-96
-37
-91
-188
-212
-155
-266
-265
-79
-227
-302
-111
-204
-400
-216
-200
-430
-171
-58
-234
-249
-242
-304
-311
-161
-117
-161
-132
-130
-99
-100
-48
78
-39
27
16
-299
-133
-13
-252
-340
-161
-100
-234
-314
-413
-313
-246
-295
-222
-199
-280
-396
-378
-250
-255
-547
-589
449
1675
2505
3057
1913
-172
-823
-520
-411
-248
-63
-161
-196
-145
-131
-123
-127
-87
-203
-132
-21
-170
-199
-2
60
-76
33
4
-135
-101
-11
75
-94
-7
264
100
44
118
4
127
186
31
224
399
251
103
185
451
481
453
627
538
388
590
753
697
794
818
600
777
1016
953
773
756
822
492
424
574
315
160
283
126
-93
-8
-26
-182
-189
-132
-202
-249
-62
-36
-218
-181
-140
-247
-210
-105
-225
-229
-142
-224
-292
-239
-153
-209
-173
-215
-371
-137
-16
-140
-130
-126
-93
-170
-272
-67
-81
-358
-223
-183
-293
-214
-313
-358
-187
-74
-164
-265
-130
-63
-197
-245
-222
-298
-201
-91
-214
-233
-109
-317
-566
-160
-34
-308
-127
37
-106
-45
82
22
-21
17
-9
-227
-123
96
-263
-413
-195
-163
-189
-169
-167
-296
-201
-75
-304
-370
-188
-154
-318
-231
-154
-444
-523
39
1142
2183
3066
2919
881
-644
-533
-322
-110
10
-137
-133
24
-40
-197
-93
-104
-149
-25
-113
-256
-32
107
17
-4
-43
-6
15
31
35
-68
-13
136
92
35
110
124
95
111
156
156
137
270
217
90
339
505
332
329
569
493
415
680
658
567
789
867
725
809
1049
918
785
865
819
729
724
609
418
399
210
27
-30
-30
-22
-209
-132
-153
-212
-38
-4
-115
-301
-142
-106
-199
-103
-163
-175
-259
-310
-197
-114
-153
-134
-102
-171
-152
-255
-151
-24
-236
-169
-70
-184
-318
-279
-102
-135
-156
-136
-187
-263
-195
-102
-177
-164
-235
-372
-246
-54
-195
-238
-90
-338
-271
-94
-318
-244
-136
-137
-178
-252
-237
-194
-160
-144
-243
-338
-156
-135
-143
-13
18
-97
-91
148
3
-105
14
-71
-216
-262
-220
-366
-346
-86
-174
-423
-308
-134
-241
-368
-242
-158
-470
-346
-190
-544
-462
45
942
2188
3098
2856
1152
-425
-713
-483
-302
-155
-58
-126
-81
-113
-166
-46
-132
-194
-66
-61
-152
-116
-25
-90
-218
-25
215
-39
-349
-58
50
-132
135
207
88
225
47
-174
140
273
18
107
300
119
118
350
303
190
316
449
455
603
651
516
555
705
809
812
900
988
873
769
817
784
666
655
552
278
193
244
80
-36
21
-78
-240
-83
-191
-343
-163
-193
-134
-100
-174
-280
-339
-222
-201
-225
-301
-255
-236
-289
-189
-194
-265
-220
-65
-276
-437
-109
-84
-298
-215
-210
-324
-187
-222
-272
-161
-253
-274
-210
-249
-229
-223
-262
-233
-234
-237
-180
-267
-368
-233
-399
-445
-126
-221
-292
-265
-188
-120
-320
-290
-208
-208
-233
-278
-175
-91
21
55
-152
-110
48
-48
-89
-111
-91
-173
-254
-306
-390
-242
-264
-342
-274
-287
-277
-273
-290
-284
-316
-306
-334
-371
-443
-694
-581
376
1711
2820
3338
2322
108
-875
-438
-246
-292
-117
-47
-199
-277
-199
-113
-199
-158
-100
-281
-232
-31
6
-7
-154
-213
-45
68
92
-87
-82
59
-95
-80
108
81
116
29
-45
126
175
186
91
56
225
272
249
430
300
205
555
664
568
643
735
610
552
709
876
958
942
888
869
725
795
747
427
524
454
140
51
85
57
-90
-93
-121
-208
-81
-87
-258
-201
-109
-261
-317
-271
-248
-240
-336
-372
-207
-174
-284
-139
-114
-71
-117
-379
-134
-180
-421
-204
-145
-151
-206
-183
-184
-405
-236
-101
-352
-259
-169
-265
-211
-221
-182
-238
-274
-284
-427
-174
-113
-353
-262
-155
-213
-242
-258
-255
-228
-441
-434
-177
-186
-135
-118
-340
-215
-37
-123
-96
-175
-214
2
141
-25
-164
-27
34
-147
-310
-340
-394
-322
-135
-253
-399
-196
-226
-467
-383
-177
-267
-318
-186
-298
-419
-423
-628
-378
1018
2307
3140
3230
1408
-457
-750
-384
-229
-199
-105
-216
-255
-137
-61
-74
-307
-293
-78
-211
-176
85
-18
-148
-50
-101
-172
-135
-30
147
24
-237
-99
53
66
128
51
68
142
26
43
229
159
122
306
276
217
381
389
327
426
497
500
646
803
758
685
723
836
802
783
930
965
801
682
605
583
549
305
44
-33
89
-105
-287
-37
-107
-264
-230
-349
-362
-183
-146
-209
-260
-128
-166
-492
-273
-44
-232
-245
-161
-241
-282
-228
-265
-254
-269
-226
-119
-259
-243
-114
-190
-208
-242
-234
-136
-129
-194
-343
-332
-253
-217
-139
-234
-324
-426
-370
-331
-328
-109
-136
-327
-220
-249
-523
-297
-149
-306
-221
-108
-259
-367
-268
-295
-241
25
72
-116
-78
-30
-94
-54
-82
-87
-129
-160
-294
-359
-324
-323
-279
-323
-282
-212
-294
-502
-430
-355
-377
-221
-251
-422
-330
-579
-848
126
1418
2467
3457
2989
713
-670
-707
-604
-224
-117
-119
-114
-215
-194
-284
-200
-44
-196
-284
-112
-73
-209
-109
21
-140
-226
-107
-80
-132
-48
-9
-103
-23
15
-42
105
193
78
23
103
128
55
117
202
168
166
244
332
423
539
482
366
646
808
641
705
754
768
889
891
849
729
773
892
687
642
648
387
201
199
152
17
-74
-105
-100
-111
-144
-281
-343
-162
-262
-416
-238
-155
-288
-318
-176
-136
-206
-229
-213
-243
-191
-181
-318
-203
-75
-204
-266
-229
-246
-301
-214
-146
-222
-232
-177
-204
-304
-268
-163
-236
-222
-22
-460
-746
-215
-155
-274
-60
-132
-321
-301
-273
-309
-354
-219
-192
-313
-262
-139
-167
-383
-279
-155
-205
-79
-161
-197
69
92
-43
13
5
-167
-65
24
-321
-502
-275
-187
-323
-310
-290
-533
-398
-16
-209
-388
-228
-320
-383
-262
-356
-573
-603
-75
1113
2395
3175
3026
1203
-627
-715
-446
-364
-157
-225
-193
33
-96
-228
-103
-215
-278
-42
-34
-107
-140
-108
-99
-95
58
-82
-228
19
120
-19
-59
92
110
-191
-53
287
122
94
213
155
169
223
245
227
285
362
313
307
358
489
535
563
666
671
700
827
862
759
892
947
761
901
821
451
585
644
458
351
254
73
-90
-50
-94
-197
-227
-135
-218
-353
-121
-213
-411
-178
-272
-422
-293
-121
-152
-270
-171
-194
-255
-172
-138
-253
-217
-104
-304
-398
-251
-240
-211
-201
-220
-204
-187
-110
-186
-389
-265
-189
-355
-222
-156
-278
-245
-214
-326
-411
-247
-221
-410
-217
-162
-349
-165
-67
-203
-305
-259
-238
-309
-191
-172
-195
-123
-132
-91
5
42
-25
-116
-139
-98
-336
-481
-160
-149
-439
-337
-334
-401
-210
-261
-348
-306
-291
-338
-329
-244
-312
-529
-596
-357
537
1704
2533
3019
1929
-67
-769
-481
-342
-351
-223
-150
-256
-356
-243
-69
-145
-208
-63
-132
-259
-110
-36
-239
-231
25
-104
-267
-23
1
-131
11
116
47
-27
90
54
-40
129
64
-15
92
107
73
92
141
241
386
416
377
429
515
501
407
541
723
698
678
742
779
715
775
900
750
659
656
524
388
305
218
29
70
-34
-260
-94
-40
-211
-309
-206
-149
-386
-296
-109
-253
-284
-257
-297
-296
-206
-178
-250
-206
-95
-253
-252
-78
-246
-374
-255
-196
-366
-302
-108
-157
-170
-237
-298
-317
-237
-54
-249
-347
-220
-346
-321
-235
-259
-245
-284
-322
-245
-200
-212
-312
-315
-322
-416
-96
-181
-515
-310
-167
-99
-154
-200
-4
-44
-117
-22
-91
-149
-173
-135
-291
-392
-183
-271
-273
-179
-370
-443
-278
-223
-316
-269
-302
-413
-397
-307
-208
-491
-613
-51
883
1874
2592
2514
1127
-387
-779
-562
-263
-138
-201
-285
-396
-275
-167
-208
-140
-119
-55
-122
-331
-144
-15
-243
-229
-131
-104
-162
-233
-82
-49
-168
-29
0
-177
110
164
-172
-60
109
39
36
102
165
149
99
190
234
258
273
315
528
473
403
564
629
649
632
608
751
765
485
554
725
558
487
332
204
257
117
-38
30
-7
-200
-222
-211
-262
-234
-222
-249
-231
-190
-180
-274
-305
-196
-218
-391
-251
-109
-325
-347
-125
-281
-486
-199
-127
-252
-134
-118
-273
-295
-133
-156
-263
-119
-191
-339
-232
-226
-218
-206
-79
-162
-469
-255
-246
-357
-148
-213
-169
-197
-308
-201
-289
-291
-199
-413
-471
-172
-127
-137
-30
-59
-48
-160
-188
-5
51
103
-21
-199
-21
-160
-433
-287
-268
-251
-232
-352
-361
-239
-156
-241
-272
-229
-311
-375
-282
-153
-390
-501
-105
325
1401
2720
2889
1535
-228
-806
-539
-319
-178
-135
-140
-124
-164
-85
-178
-340
-233
-113
-13
-41
-58
26
-45
-196
-45
81
-49
-13
43
55
-24
-175
-20
33
36
226
116
9
117
120
130
246
242
214
341
397
275
344
394
312
525
667
621
645
528
510
747
849
877
866
893
953
674
501
614
595
426
273
276
187
-64
-127
-64
-187
-100
19
-361
-421
-103
-155
-195
-8
-82
-224
-80
-93
-464
-379
-12
-151
-235
-82
-180
-300
-327
-315
-156
-109
-68
-104
-330
-170
-53
-286
-133
27
-131
-200
-94
-166
-410
-274
-176
-265
-194
-151
-213
-184
-286
-453
-320
-249
-197
-154
-121
-139
-330
-277
-136
-224
-214
-118
-271
-179
-75
-381
-242
38
55
96
21
68
112
-205
-360
-227
-303
-292
-137
-222
-275
-269
-420
-383
-186
-225
-379
-284
-145
-386
-455
-309
-486
-545
213
1463
2451
3068
2449
536
-668
-613
-357
-236
-149
-195
-332
-187
-23
-184
-238
-152
-102
-172
-91
44
-127
-95
26
-75
-210
-206
-97
-55
76
155
-43
-78
24
-87
-21
170
147
42
78
152
71
149
318
243
201
335
453
177
59
451
547
631
741
679
758
814
668
605
796
886
868
904
832
636
353
241
282
207
210
150
-4
-134
-116
-77
-226
-157
-96
-253
-222
-76
-288
-462
-439
-329
-119
-197
-205
-211
-276
-264
-295
-191
-117
-241
-268
-142
-240
-501
-448
-116
-176
-251
0
-130
-316
-203
-338
-368
-130
-126
-223
-344
-256
-158
-352
-361
-234
-228
-265
-259
-231
-286
-259
-215
-238
-188
-251
-351
-325
-246
-285
-351
-261
-176
-149
-60
-70
-238
-71
87
-79
-62
-89
-153
-95
-215
-360
-286
-224
-359
-476
-423
-191
-267
-438
-272
-357
-403
-209
-287
-348
-354
-496
-597
-273
983
2239
2959
3024
1342
-548
-885
-594
-252
-86
-141
-100
-147
-158
-162
-240
-158
-119
-137
-186
-128
-88
-132
-25
-126
-170
-28
-37
-71
-87
-107
-97
7
121
132
70
49
121
-39
-47
234
195
99
226
280
262
248
185
344
461
517
579
516
635
648
618
778
745
727
864
929
932
782
726
704
412
485
588
286
155
184
44
-127
-44
16
-190
-252
-185
-348
-300
-77
-97
-166
-131
-185
-299
-297
-170
-254
-348
-111
-98
-198
-211
-107
-101
-312
-224
-169
-330
-147
-110
-370
-126
-16
-333
-273
-134
-261
-339
-241
-244
-320
-258
-247
-395
-350
-92
-256
-375
-181
-252
-355
-288
-146
-292
-344
-139
-257
-319
-153
-206
-338
-228
-312
-421
-174
-92
-251
-165
52
27
11
-29
-12
-22
-124
-54
-169
-310
-222
-250
-384
-282
-352
-452
-350
-380
-350
-318
-351
-324
-272
-173
-226
-555
-634
-211
811
2182
3076
3065
1621
-271
-758
-500
-247
-89
-72
-119
-250
-195
-235
-187
-54
-175
-82
-81
-270
-148
-74
-151
-136
-125
-178
-84
32
39
-69
-101
108
177
-41
-93
134
91
38
147
85
61
260
184
-29
237
360
249
417
486
343
431
627
626
665
795
722
702
816
872
816
825
949
733
591
663
476
359
308
244
141
-94
-124
-129
-157
-54
-121
-214
-284
-327
-225
-200
-180
-209
-296
-332
-339
-302
-217
-188
-311
-267
-203
-263
-189
-172
-192
-181
-196
-251
-246
-194
-262
-343
-296
-225
-243
-239
-195
-222
-328
-364
-180
-190
-399
-266
-313
-432
-251
-257
-264
-303
-316
-244
-286
-180
-259
-352
-334
-439
-362
-292
-229
-285
-427
-278
-172
-158
-66
-55
-207
-128
128
-9
-102
40
-19
-169
-289
-315
-254
-233
-218
-256
-407
-399
-262
-323
-276
-170
-354
-446
-326
-367
-355
-267
-476
-666
-320
752
1964
3022
3423
1884
-211
-738
-480
-433
-164
-19
-268
-134
-94
-289
-176
-204
-243
-135
-119
-18
-95
-248
-75
-79
-199
-1
66
-16
-15
5
-6
-34
67
92
-27
71
188
31
61
129
125
134
178
286
215
294
302
278
446
465
479
613
678
603
622
752
798
627
767
1012
829
726
804
786
605
561
494
262
227
252
-29
-95
28
-215
-274
-101
-92
-191
-235
-280
-372
-275
-237
-221
-149
-148
-298
-431
-216
-101
-205
-188
-183
-285
-272
-146
-190
-354
-220
-85
-257
-228
-123
-190
-341
-355
-130
-211
-313
-119
-134
-337
-458
-285
-137
-198
-293
-374
-260
-135
-244
-430
-299
-246
-336
-254
-285
-323
-246
-179
-327
-364
-225
-250
-272
-221
-205
-238
-240
-89
-4
-30
88
82
-23
15
-59
-104
-42
-213
-328
-293
-247
-363
-438
-201
-231
-425
-360
-263
-411
-489
-191
-174
-382
-237
-360
-764
-619
307
1495
2642
3489
2615
416
-676
-570
-421
-173
-99
-219
-201
-194
-153
-171
-135
-133
-258
-146
-15
-217
-193
109
-48
-186
-46
-180
-174
110
102
-58
-34
117
68
-65
53
76
50
160
189
74
70
262
209
122
341
343
213
393
430
408
548
630
644
620
726
788
730
809
873
715
817
985
706
612
741
506
297
352
275
74
-38
-60
-82
-153
-226
-274
-319
-309
-203
-247
-165
-109
-460
-456
-231
-187
-231
-230
-208
-415
-300
-57
-207
-208
-257
-367
-194
-64
-200
-400
-179
-54
-356
-348
-182
-299
-373
-217
-119
-348
-371
-188
-263
-285
-411
-290
-185
-529
-338
-180
-314
-178
-190
-326
-270
-198
-350
-398
-304
-417
-321
-151
-312
-308
-209
-266
-392
-257
38
-111
-296
-64
38
-65
-19
-46
-124
33
110
-158
-326
-292
-350
-348
-280
-297
-380
-352
-251
-349
-432
-300
-312
-347
-198
-226
-414
-462
-588
-644
75
1327
2618
3356
2665
649
-776
-606
-233
-276
-187
-102
-254
-296
-47
-109
-493
-186
114
-150
-62
67
-186
-290
-82
1
-210
-176
28
-70
-153
15
56
-52
133
191
-4
61
150
75
163
253
163
103
206
270
185
325
385
279
404
552
486
466
705
636
541
737
692
759
1053
1065
810
731
869
796
591
567
422
264
204
130
81
-144
-163
-64
-195
-268
-245
-244
-191
-186
-319
-193
-75
-240
-335
-209
-104
-222
-193
-143
-326
-292
-132
-286
-378
-268
-272
-239
-134
-172
-307
-278
-224
-203
-187
-136
-199
-343
-274
-180
-206
-286
-228
-203
-298
-265
-285
-384
-261
-131
-273
-405
-199
-121
-343
-339
-210
-275
-279
-175
-246
-239
-193
-240
-268
-256
-111
-155
-144
47
-50
-54
98
-90
-158
10
54
-30
-143
-160
-252
-336
-252
-201
-224
-239
-354
-428
-327
-114
-315
-471
-184
-393
-432
-157
-503
-753
-135
1004
2043
3149
3436
1475
-449
-577
-326
-327
-229
-40
-172
-285
-83
-120
-274
-150
-135
-193
-59
-2
-49
-150
-100
-17
-171
-32
69
-80
27
66
-43
-35
-23
33
136
189
166
22
144
217
-1
37
311
369
227
197
419
431
289
539
593
543
632
584
677
810
820
759
789
978
881
753
897
722
536
720
640
416
358
224
47
18
-25
-200
-180
-129
-220
-234
-114
-58
-198
-224
-70
-138
-428
-244
-122
-353
-213
-131
-206
-71
-70
-260
-182
-86
-188
-223
-281
-171
-136
-195
-114
-246
-225
-133
-206
-273
-257
-160
-278
-310
-182
-187
-287
-248
-127
-277
-386
-236
-165
-216
-175
-238
-287
-116
-221
-311
-175
-242
-389
-409
-182
-167
-275
-99
-133
-220
-1
113
-73
-106
118
172
49
-54
-84
-121
-296
-291
-211
-269
-244
-209
-335
-348
-235
-311
-279
-192
-314
-345
-230
-266
-368
-363
-490
-485
425
1886
3037
3477
2288
65
-795
-360
-242
-288
-89
-30
-104
-180
-34
-240
-638
-133
174
-29
23
45
-56
-50
117
52
-136
38
119
-48
16
155
43
-111
72
58
-14
253
287
-35
28
411
194
155
441
391
372
467
378
286
477
584
551
628
702
747
552
478
855
938
953
1038
901
830
837
643
431
620
572
213
233
185
-26
-28
2
-100
-178
-120
-107
-296
-502
-415
-240
-144
-54
-80
-145
-194
-277
-227
-155
-124
-160
-133
-135
-381
-212
-144
-387
-150
-85
-263
-85
-110
-296
-155
-118
-91
-19
-140
-203
-175
-215
-260
-239
-295
-346
-114
-143
-571
-401
-116
-226
-139
-68
-212
-188
-301
-454
-193
-92
-168
-241
-194
-91
-344
-445
-239
-116
-75
-36
-32
-163
-73
103
-54
-65
110
24
-62
-141
-435
-444
-222
-159
-204
-346
-333
-190
-365
-449
-235
-276
-324
-205
-265
-388
-386
-514
-561
278
1660
2793
3486
2580
221
-962
-536
-218
-260
-151
-187
-314
-201
-50
-95
-180
-44
-70
-158
-38
-83
-163
-67
-49
-130
-46
-36
-368
-274
45
-10
-25
49
146
66
-21
101
120
39
67
205
180
134
277
321
291
309
287
309
468
513
430
507
649
658
649
770
878
744
721
788
730
896
1015
754
544
535
350
239
292
168
-46
-131
-26
-110
-275
-159
-185
-263
-184
-240
-290
-166
-145
-329
-354
-206
-149
-216
-203
-232
-262
-191
-236
-177
-208
-276
-142
-162
-221
-150
-167
-270
-223
-312
-392
-93
-106
-318
-263
-265
-381
-288
-182
-266
-272
-330
-343
-284
-199
-234
-318
-251
-260
-268
-397
-364
-233
-386
-294
-166
-347
-433
-227
-163
-322
-194
-116
-312
-165
57
-43
-10
-31
-48
-45
-93
-14
-190
-395
-269
-331
-485
-354
-453
-444
-274
-385
-344
-191
-358
-452
-290
-231
-303
-461
-590
-498
326
1688
2975
3414
2021
101
-751
-694
-286
-226
-223
-76
-121
-268
-250
-113
-273
-246
21
-128
-225
-102
-62
-66
-101
-46
-73
-86
-48
-95
-127
29
199
-54
-56
120
67
87
118
41
-137
86
300
223
290
252
216
347
437
256
233
595
630
502
671
723
605
658
813
802
656
783
970
823
703
758
736
480
345
237
29
114
139
-155
-346
-189
-142
-195
-161
-290
-284
-118
-106
-320
-357
-154
-257
-323
-197
-224
-300
-231
-144
-219
-278
-242
-136
-201
-339
-256
-260
-85
-125
-415
-301
-192
-208
-300
-307
-234
-306
-279
-276
-346
-257
-215
-331
-450
-288
-321
-408
-150
-204
-425
-381
-240
-322
-356
-236
-319
-349
-258
-311
-394
-255
-183
-401
-279
43
-109
-276
-102
39
-3
-86
-101
-90
-108
-222
-348
-339
-312
-311
-379
-396
-260
-418
-511
-264
-377
-404
-306
-352
-293
-303
-422
-725
-440
801
2005
2862
3148
1684
-420
-970
-605
-322
-247
-241
-151
-126
-155
-155
-167
-172
-101
-129
-147
-42
1
-202
-307
-41
-129
-162
93
-41
-136
4
70
40
38
68
60
34
160
175
-129
-49
98
72
293
401
336
194
174
251
348
580
617
598
639
583
547
637
875
800
669
866
849
635
708
761
600
742
633
119
121
276
102
-57
-8
-65
-330
-250
-77
-207
-176
-72
-301
-445
-261
-101
-181
-130
-60
-369
-357
-123
-201
-245
-140
-54
-128
-158
-119
-231
-175
-73
-253
-289
-112
-102
-236
-192
-136
-309
-303
-182
-162
-314
-308
-220
-266
-213
-256
-223
-172
-190
-234
-240
-180
-118
-177
-395
-384
-303
-326
-221
-221
-330
-69
-119
-409
-189
-7
-46
-35
92
87
-180
-208
-65
-247
-433
-240
-190
-482
-388
-282
-348
-255
-315
-358
-428
-379
-237
-382
-179
-133
-629
-728
-219
798
1944
2921
2988
1354
-480
-923
-623
-252
-136
-303
-165
-69
-270
-327
-174
-101
-181
-148
-100
-221
-196
-101
-186
-257
-271
-75
-11
-167
-44
54
-21
-85
-42
17
7
69
99
80
63
105
160
72
189
224
87
249
287
305
398
356
542
629
432
532
772
716
633
751
753
763
799
672
675
679
645
487
325
365
231
76
96
66
-92
-124
-115
-235
-281
-220
-191
-248
-321
-391
-405
-320
-122
-109
-269
-264
-163
-183
-300
-193
-145
-241
-87
-132
-320
-214
-144
-216
-176
-118
-303
-331
-207
-224
-230
-159
-155
-289
-257
-244
-283
-203
-226
-282
-334
-273
-118
-315
-371
-126
-266
-286
-181
-291
-199
-157
-352
-373
-199
-164
-272
-197
-7
-37
-228
-144
-25
-117
25
-1
-101
-52
-235
-348
-355
-373
-292
-264
-296
-340
-341
-351
-419
-463
-397
-246
-373
-337
-201
-523
-636
-370
469
1657
2501
3210
2270
-48
-822
-456
-425
-360
-67
-127
-360
-186
-85
-313
-291
-76
-239
-338
-50
-90
-218
-80
-17
-79
-89
-5
-144
-342
-81
28
-120
94
95
-174
-89
66
36
63
181
45
-115
56
175
256
304
256
308
291
341
457
468
560
624
593
649
730
708
788
914
751
692
736
476
480
579
401
240
186
143
-42
-131
-135
-195
-186
-269
-372
-333
-258
-103
-308
-543
-241
-303
-349
-149
-355
-381
-182
-130
-214
-271
-142
-347
-527
-318
-290
-250
-265
-317
-228
-103
-273
-494
-286
-123
-109
-233
-454
-312
-159
-335
-366
-218
-302
-275
-147
-299
-287
-183
-256
-322
-285
-336
-316
-177
-285
-318
-222
-187
-301
-339
-177
-287
-363
-199
-162
-229
-156
19
-32
-163
-17
9
-123
-56
-75
-202
-314
-397
-312
-220
-219
-344
-355
-269
-335
-483
-440
-265
-317
-246
-187
-314
-400
-555
-497
158
1248
2429
3268
2701
774
-660
-727
-348
-158
-164
-174
-79
-192
-254
-10
-139
-294
-27
-85
-242
-95
-40
-133
-124
-16
-33
-231
-158
36
-62
-44
84
12
-18
134
133
0
82
159
101
160
211
209
123
58
89
183
517
629
459
476
530
630
689
721
758
712
872
904
768
850
947
859
731
665
585
452
412
386
222
122
88
-39
-180
-131
-204
-237
-82
-105
-253
-216
-154
-373
-358
-154
-163
-290
-175
-125
-396
-243
-46
-192
-218
-253
-214
-225
-310
-194
-252
-297
-169
-254
-283
-129
-233
-411
-196
-79
-343
-269
-123
-339
-218
-137
-357
-388
-226
-172
-329
-335
-319
-315
-315
-303
-241
-271
-282
-189
-189
-487
-394
-151
-301
-248
-184
-196
-131
-175
-147
-25
41
-46
-99
33
-21
-152
-131
-316
-511
-368
-167
-245
-421
-411
-392
-370
-255
-218
-392
-360
-158
-225
-268
-371
-605
-632
97
1499
2545
3275
2961
886
-726
-702
-302
-205
-185
-164
-153
-141
-99
-85
-228
-165
-47
-141
-85
-54
-164
-88
17
-44
-103
-16
21
-106
-111
-5
-50
-9
116
45
61
165
141
67
147
240
181
16
117
357
188
162
368
421
496
541
521
617
696
669
735
883
845
779
869
796
777
868
882
734
577
641
478
212
168
138
-67
-147
-27
-58
-153
-92
-66
-278
-260
-122
-343
-331
-158
-342
-341
-135
-187
-283
-240
-143
-185
-253
-136
-184
-286
-198
-180
-268
-363
-253
-123
-216
-283
-264
-178
-114
-184
-256
-245
-238
-297
-262
-147
-233
-209
-291
-489
-281
-300
-321
-205
-301
-295
-288
-282
-178
-216
-350
-228
-205
-375
-321
-247
-223
-247
-182
-61
-223
-171
-51
-121
105
132
-153
-178
-45
20
-103
-342
-335
-246
-205
-270
-484
-344
-129
-190
-387
-408
-290
-343
-366
-376
-395
-298
-374
-603
-412
656
2059
3042
3358
2110
-67
-969
-520
-154
-215
-182
-155
-232
-271
-132
-22
-126
-77
-59
-167
-71
-89
-218
-129
-98
-104
-110
-113
-13
28
-55
-40
-43
-50
77
-4
1
151
116
77
117
187
127
12
229
393
337
273
362
518
385
377
544
625
761
722
622
834
825
526
864
1086
717
819
933
710
637
538
328
225
185
69
-42
-175
-183
-205
-221
-78
-145
-312
-379
-242
-177
-228
-194
-221
-322
-284
-180
-317
-379
-212
-202
-190
-92
-150
-188
-198
-255
-257
-228
-216
-217
-207
-139
-220
-379
-300
-184
-316
-322
-266
-300
-213
-139
-287
-391
-185
-224
-324
-200
-180
-357
-441
-197
-230
-342
-140
-192
-321
-241
-222
-430
-436
-179
-219
-281
-266
-264
-131
-47
-15
-75
16
120
-165
-169
48
-49
-204
-302
-374
-343
-331
-274
-239
-385
-263
-300
-590
-383
-217
-343
-266
-137
-350
-502
-503
-718
-304
985
2138
3036
3170
1482
-484
-790
-403
-384
-275
-173
-192
-157
-112
-95
-203
-186
-81
-184
-332
-206
-44
-85
-189
-179
-84
-57
29
8
-45
68
-57
-173
4
72
51
38
189
193
-207
-125
217
178
203
294
238
276
221
170
358
504
573
515
624
707
462
525
781
816
795
884
916
696
633
786
675
472
462
283
-40
-22
98
-53
-74
7
-122
-239
-207
-159
-199
-244
-223
-293
-316
-170
-268
-334
-236
-277
-367
-426
-170
-153
-344
-103
-110
-342
-154
-155
-319
-148
-143
-242
-193
-192
-328
-287
-161
-314
-361
-248
-216
-197
-271
-285
-147
-274
-383
-274
-311
-312
-214
-263
-264
-87
-206
-367
-258
-262
-400
-281
-140
-355
-224
-168
-349
-165
-81
-44
-57
-10
60
-163
-137
-15
-171
-335
-324
-276
-412
-356
-254
-315
-276
-228
-396
-421
-226
-368
-466
-269
-226
-341
-415
-583
-678
185
1746
2782
3105
2094
139
-864
-653
-296
-250
-194
-94
-118
-189
-216
-238
-239
-288
-197
-98
-119
-11
-59
-158
-192
-178
-65
-81
-32
23
-7
-108
-160
-17
78
93
-31
57
131
-93
50
240
163
145
177
115
155
311
212
152
481
655
534
439
521
680
615
638
711
647
802
923
700
661
785
602
371
365
419
195
6
129
10
-191
-183
-179
-209
-241
-217
-271
-330
-261
-180
-256
-392
-403
-331
-208
-118
-212
-371
-233
-153
-420
-360
-69
-96
-308
-238
-140
-257
-187
-162
-311
-212
-174
-393
-256
-128
-292
-316
-252
-360
-352
-214
-341
-254
-117
-277
-251
-360
-437
-249
-273
-282
-255
-387
-361
-160
-227
-276
-135
-159
-152
-145
-180
-99
-133
-94
-67
-174
-159
-246
-446
-413
-297
-322
-290
-368
-437
-383
-345
-287
-454
-453
-306
-448
-375
-261
-520
-648
70
1391
2251
2620
2068
179
-930
-595
-394
-309
-183
-246
-283
-300
-241
-215
-179
-213
-339
-213
-54
-126
-168
-96
-148
-192
-127
-68
-124
-143
-84
-119
-174
14
20
-135
91
174
8
-92
33
64
-88
64
225
155
149
260
240
206
377
451
451
497
439
380
501
609
564
527
623
745
662
654
719
514
331
364
236
17
101
-29
-218
-64
-124
-354
-258
-74
-208
-321
-248
-260
-291
-228
-210
-250
-201
-164
-362
-249
-75
-242
-268
-277
-309
-271
-186
-89
-202
-370
-146
-44
-222
-143
-71
-160
-142
-139
-249
-221
-60
-192
-539
-332
-51
-260
-259
-131
-166
-144
-79
-136
-267
-146
-106
-316
-249
-110
-191
-219
-45
-157
-386
-56
102
-29
98
98
-31
-51
-49
-117
-217
-178
-138
-352
-362
-192
-294
-270
-93
-241
-412
-367
-308
-255
-211
-122
-242
-461
-326
294
1189
2168
2751
1994
291
-689
-645
-341
-63
-190
-395
-209
-49
-152
-116
51
-86
-108
-116
-232
-35
105
42
-56
11
77
21
30
-148
-215
-76
36
120
46
75
134
100
137
16
6
158
267
252
189
85
89
330
378
494
579
449
450
604
568
579
780
733
698
832
848
697
671
775
688
695
679
334
218
327
178
36
110
79
15
-133
-366
-280
-65
7
-50
-177
-125
76
-197
-472
-209
-135
-157
-26
-131
-198
-126
-361
-335
-74
-160
-165
-72
-13
-85
-214
-99
-157
-371
-200
-11
-86
-89
-54
-32
-329
-571
-242
-89
-86
-4
-124
-157
-108
-192
-289
-308
-164
-154
-157
-101
-253
-100
-153
-494
-300
-81
-145
-202
-60
50
-97
-233
-63
66
19
112
109
-75
-59
32
-213
-479
-330
-125
-166
-149
-143
-279
-264
-141
-259
-442
-277
-126
-248
-234
-270
-458
-398
288
1250
1908
2722
2516
617
-563
-508
-349
-200
-64
-55
-119
-107
-126
-240
-205
-67
-190
-126
50
-72
44
42
-354
-299
86
106
-22
30
97
83
-77
-194
-72
43
202
240
88
204
210
-69
110
259
83
197
355
377
413
303
270
403
466
575
637
607
703
793
726
715
854
807
680
855
870
660
612
510
364
263
103
19
-38
-6
-29
-186
-41
-208
-483
-138
-19
-170
-116
-49
-113
-220
-356
-315
-186
-166
-104
-148
-199
-150
-92
-222
-342
-261
-329
-265
-79
-92
-111
-99
-180
-250
-196
-227
-267
-166
-112
-173
-244
-104
-304
-652
-299
-50
-125
-77
-89
-164
-202
-225
-257
-241
-128
-135
-275
-228
-142
-376
-349
-146
-476
-464
-1
100
-76
-156
-10
30
-12
63
15
-61
-2
-48
-258
-345
-300
-327
-316
-378
-366
-210
-283
-279
-342
-382
-157
-228
-384
-242
-245
-457
-600
-247
829
1973
2979
2893
967
-530
-693
-490
-129
-51
-165
-98
-16
-114
-193
-121
-127
-182
-105
-71
-149
-69
21
-86
-154
-303
-370
-12
137
37
47
115
101
-30
-4
-10
-9
126
202
189
179
57
71
319
247
196
247
135
337
508
482
579
569
546
642
766
739
666
806
879
780
918
832
439
621
755
480
331
270
252
116
78
109
-41
-169
-186
-161
-198
-248
-93
-141
-220
-96
-412
-384
-51
-182
-213
-171
-264
-120
-54
-190
-182
-150
-140
-249
-347
-101
-144
-453
-176
-36
-208
-212
-195
-129
-200
-172
-23
-264
-302
-58
-231
-313
-128
-184
-447
-373
-28
-192
-414
-276
-183
-278
-277
-132
-262
-238
-175
-340
-236
-168
-283
-314
-219
-264
-314
-88
-114
-172
82
114
-73
-25
-9
-101
-178
-221
-235
-399
-269
-212
-409
-325
-232
-211
-329
-478
-359
-377
-285
-175
-329
-307
-370
-543
-477
376
1640
2544
3077
2240
212
-852
-675
-482
-425
-207
-94
-215
-189
-40
-134
-204
-104
-83
-171
-128
-103
-128
-25
-50
-111
-121
-131
-169
-115
63
61
-145
-109
177
143
21
127
75
-52
112
192
101
154
132
168
287
260
214
269
443
553
554
585
643
583
640
794
768
826
830
669
743
868
754
556
552
514
305
230
223
132
41
42
-31
-262
-279
-85
-146
-285
-217
-216
-277
-223
-198
-272
-283
-135
-217
-295
-121
-158
-326
-238
-172
-384
-343
-83
-71
-247
-132
-77
-336
-324
-220
-265
-234
-156
-274
-300
-192
-209
-307
-270
-208
-309
-262
-210
-273
-290
-235
-271
-317
-199
-210
-305
-235
-186
-290
-329
-321
-390
-361
-297
-299
-282
-223
-112
-129
-195
-111
25
14
43
57
-134
-115
-78
-286
-317
-175
-192
-358
-368
-229
-357
-410
-229
-322
-436
-330
-306
-349
-336
-288
-362
-593
-591
-569
-351
784
2167
3060
3212
1722
-435
-896
-410
-306
-92
-14
-211
-308
-274
-165
-279
-221
-193
-373
-82
-42
-198
-151
-77
7
-177
-237
-20
-8
-55
67
23
-73
-46
35
19
-77
-40
24
57
169
209
79
154
326
237
154
290
423
323
301
471
417
557
823
678
692
859
765
768
912
887
841
809
828
824
527
381
353
205
-42
-92
34
-26
-29
-138
-211
-202
-241
-261
-199
-187
-342
-270
-120
-193
-331
-236
-227
-315
-168
-170
-358
-249
-78
-206
-271
-170
-188
-285
-170
-152
-372
-314
-150
-194
-264
-294
-260
-272
-206
-156
-392
-318
-26
-198
-380
-224
-222
-307
-265
-314
-363
-261
-267
-447
-460
-245
-193
-345
-240
-197
-240
-210
-248
-198
-139
-24
-45
-69
109
-25
-169
-17
-80
-190
-102
-76
-255
-370
-269
-317
-321
-208
-283
-366
-305
-263
-333
-379
-346
-422
-476
-271
-291
-620
-660
-75
1041
2316
3456
3185
1008
-568
-567
-558
-455
-42
-206
-314
-88
-83
-186
-306
-351
-265
-100
-34
-66
-204
-258
-224
-204
2
133
-33
-98
31
19
-60
-56
-92
-55
94
135
71
61
43
71
148
185
247
199
240
161
122
406
526
475
504
567
614
591
593
776
814
692
832
930
793
844
877
699
600
634
294
165
367
-28
-187
6
-113
-177
-113
-88
-176
-277
-166
-155
-238
-184
-191
-295
-333
-327
-392
-354
-159
-128
-232
-141
-102
-235
-241
-192
-218
-195
-197
-196
-265
-352
-155
-206
-255
-67
-221
-368
-204
-151
-346
-304
-204
-332
-304
-125
-233
-371
-232
-219
-340
-258
-213
-359
-281
-237
-395
-349
-176
-292
-406
-261
-268
-240
-134
-162
-181
-85
47
51
-27
-18
36
-7
-52
-38
-192
-368
-317
-269
-321
-342
-409
-464
-300
-217
-398
-396
-224
-224
-412
-442
-235
-337
-603
-686
-282
801
1951
3011
3163
1444
-417
-800
-509
-296
-265
-271
-128
-153
-233
-127
-107
-235
-184
-52
-214
-241
-78
-73
-140
-119
-3
-66
-61
-5
-137
-92
81
31
-36
82
106
-24
39
214
19
-16
133
-10
80
256
313
251
283
499
379
316
571
543
513
693
695
610
708
764
697
838
882
759
640
566
597
593
374
217
279
174
75
24
-57
-24
-64
-244
-230
-220
-340
-256
-187
-386
-419
-186
-148
-318
-294
-97
-104
-160
-202
-54
35
-194
-183
-158
-210
-63
-157
-359
-209
-215
-275
-102
-131
-292
-174
-154
-392
-261
-87
-207
-253
-192
-237
-296
-152
-111
-199
-193
-214
-264
-303
-218
-172
-218
-210
-168
-174
-331
-270
-170
-190
-87
-73
-212
-91
114
69
108
140
-18
-158
25
49
-259
-266
-160
-262
-284
-191
-261
-356
-302
-287
-318
-312
-255
-288
-377
-248
-190
-442
-533
-392
80
1222
2348
2947
2536
831
-694
-870
-428
-245
-220
-140
-92
-231
-313
-51
-10
-167
-67
-86
-173
-114
-68
-71
-81
-6
-24
-123
-72
-90
-121
-39
78
-6
-28
164
-29
-70
217
209
109
172
248
188
179
165
142
299
406
373
360
484
602
611
526
608
708
693
755
787
774
849
846
623
725
833
594
431
413
331
171
133
93
-40
-90
-97
-228
-228
-184
-213
-165
-143
-152
-276
-290
-169
-154
-279
-259
-156
-300
-282
-159
-266
-285
-122
-109
-196
-173
-132
-235
-290
-108
-127
-227
-147
-163
-236
-180
-163
-350
-374
-260
-264
-291
-218
-156
-241
-336
-309
-214
-211
-199
-336
-305
71
-242
-590
-229
-60
-224
21
679
149
-649
-189
-87
-314
-72
53
-42
16
191
-34
-158
36
-141
-282
-200
-254
-356
-296
-246
-399
-387
-154
-317
-598
-333
-148
-261
-257
-188
-294
-542
-536
-198
796
2074
2964
3175
1775
-189
-822
-457
-218
-228
-138
-144
-117
-98
-187
-101
-133
-208
-126
-111
-124
-134
-130
-127
-122
-109
-100
-75
33
82
-69
-62
9
-57
-12
139
91
-3
126
193
55
50
192
146
161
370
340
257
404
452
340
458
562
512
707
812
673
764
922
760
736
1002
914
693
773
756
539
397
434
286
7
91
105
-62
-93
-154
-212
-279
-190
-72
-269
-183
-125
-269
-174
-271
-348
-218
-162
-137
-192
-275
-236
-210
-245
-162
-113
-286
-173
-38
-297
-281
-135
-232
-164
-104
-302
-360
-139
-178
-349
-228
-311
-322
-127
-184
-269
-292
-200
-129
-307
-384
-324
-351
-208
-124
-225
-199
-430
-581
-295
-15
-28
-245
-176
-102
-225
-151
-153
-189
-76
72
156
61
38
96
-37
-258
-158
-90
-219
-169
-154
-309
-271
-108
-463
-620
-247
-228
-303
-268
-303
-290
-281
-391
-408
-429
-539
-134
960
2188
3125
3142
1646
-221
-776
-423
-160
-130
-59
-258
-605
-285
-13
-46
-51
-92
-69
-61
-125
-173
-99
-95
-68
9
-38
-133
-300
-161
33
45
160
102
80
130
102
79
63
147
185
178
220
186
211
423
120
-199
428
650
438
608
644
674
728
520
553
863
933
877
867
935
971
810
773
767
357
256
411
223
125
154
213
1
-239
-155
-256
-165
-13
-122
-200
-191
-117
-221
-309
-174
-213
-209
-30
-275
-517
-266
-98
-176
-124
-66
-138
-181
-43
-145
-508
-342
-100
-175
-162
-108
-163
-248
-107
-204
-562
-297
-73
-241
-235
-87
-227
-531
-269
-67
-254
-199
-137
-253
-273
-90
-239
-707
-370
-43
-219
-138
-124
-270
-237
-81
-271
-440
-323
-193
-57
20
132
168
196
146
-35
-65
14
-63
-253
-253
-259
-365
-323
-263
-318
-259
-268
-501
-416
-234
-250
-245
-193
-206
-263
-269
-723
-840
176
1590
2813
3381
2589
566
-753
-670
-312
-159
-195
-90
-57
-254
-207
-115
-171
-190
-210
-160
-119
-128
-26
-24
-65
-95
-145
-107
-5
-28
-47
186
94
-65
27
-10
75
162
220
150
-102
95
291
193
234
227
158
238
438
346
385
608
558
606
637
633
700
698
764
701
752
996
983
899
814
785
565
424
520
360
270
149
-50
-73
-79
-128
-173
-137
-200
-197
-161
-295
-190
-193
-336
-198
-242
-335
-138
-185
-269
-114
-139
-243
-160
-54
-142
-175
-135
-160
-154
-111
-108
-252
-246
-237
-428
-420
-116
-27
-265
-212
-115
-285
-262
-120
-218
-241
-158
-240
-295
-225
-200
-288
-319
-182
-257
-476
-336
-195
-283
-190
-141
-324
-186
-22
-282
-288
-96
-115
-85
-63
-23
28
91
183
39
-12
-26
-59
-120
-291
-252
-306
-323
-268
-342
-284
-226
-307
-341
-278
-251
-310
-323
-284
-303
-430
-609
-681
-718
55
1488
2461
3380
3217
909
-828
-623
-332
-301
-124
-63
-122
-186
-164
-388
-366
24
-35
-177
-111
-22
-37
-23
-26
-109
-161
-68
-3
-45
18
-24
-27
-9
67
43
-176
107
254
79
218
267
131
120
226
185
116
293
419
322
430
635
515
434
616
629
633
809
763
757
965
959
867
792
759
803
641
520
482
237
153
235
94
-15
-82
-189
-145
-136
-227
-400
-287
-24
-196
-320
-204
-230
-248
-160
-197
-203
-253
-235
-321
-408
-167
-181
-191
-95
-183
-264
-278
-216
-223
-230
-155
-225
-251
-151
-174
-291
-209
-226
-455
-326
-168
-336
-356
-207
-238
-277
-178
-195
-307
-271
-273
-344
-277
-178
-219
-287
-284
-350
-369
-303
-236
-294
-312
-187
-175
-220
-166
-74
-34
-13
60
-107
-235
122
73
-205
-136
-205
-335
-285
-321
-415
-345
-320
-264
-317
-430
-395
-404
-368
-294
-360
-432
-397
-529
-636
-235
824
1990
3061
3176
1317
-539
-782
-493
-389
-108
6
-329
-311
-245
-400
-213
-71
-286
-378
-104
-37
-206
-184
-125
-155
-131
-57
-64
-193
-88
16
-103
-21
83
-32
-84
83
104
44
110
95
116
141
76
133
126
124
338
368
354
453
347
454
597
462
569
708
721
610
709
932
775
803
884
686
608
633
481
292
213
134
-4
-64
29
-102
-317
-247
-187
-268
-277
-256
-259
-220
-179
-294
-363
-293
-281
-187
-80
-235
-352
-174
-90
-194
-206
-159
-173
-117
-200
-301
-292
-343
-126
-94
-384
-333
-252
-323
-225
-167
-296
-286
-150
-279
-460
-247
-115
-307
-283
-169
-290
-451
-352
-197
-321
-326
-238
-314
-308
-231
-291
-379
-269
-235
-291
-174
-203
-247
-75
-45
-19
112
133
13
-66
-38
-78
-254
-292
-221
-317
-339
-260
-356
-445
-259
-190
-564
-549
-262
-362
-267
-197
-322
-351
-421
-551
-325
775
1979
2854
3075
1512
-430
-973
-580
-196
-218
-273
-132
-220
-345
-136
-179
-226
-58
-216
-208
3
-121
-230
-131
35
51
-141
-146
-33
-23
-66
-41
-14
22
136
35
-103
104
113
-50
86
64
67
229
244
177
250
411
319
279
475
550
426
505
720
642
574
789
797
696
833
878
787
772
731
506
456
475
190
146
309
120
-87
-34
27
-38
-176
-169
-154
-294
-187
-50
-223
-226
-320
-411
-122
-71
-211
-228
-112
-107
-230
-196
-115
-87
-172
-163
-115
-294
-169
-39
-248
-195
-107
-182
-178
-183
-199
-252
-206
-126
-267
-328
-210
-219
-357
-175
-202
-458
-156
-109
-375
-249
-154
-290
-271
-102
-211
-302
-160
-274
-420
-252
-53
-117
-315
-118
25
-92
-16
59
30
51
49
-37
-54
-154
-343
-360
-261
-224
-341
-378
-254
-331
-390
-281
-420
-577
-317
-268
-518
-336
-225
-432
-526
-35
1092
2155
3094
3049
1193
-521
-732
-403
-289
-299
-204
-305
-257
-65
-178
-139
-114
-167
-75
-55
-140
-95
-16
-88
-158
-48
4
-125
-99
108
38
-177
16
84
-4
-62
-65
98
58
150
230
49
146
225
43
237
413
188
266
565
497
359
666
745
401
538
842
812
822
874
812
810
880
835
647
696
719
310
170
361
220
-41
-8
-1
-130
-172
-55
-74
-255
-169
-83
-226
-155
-146
-312
-158
-64
-314
-271
-70
-221
-275
-90
-159
-357
-218
-62
-175
-233
-115
-147
-337
-193
-141
-358
-304
-153
-208
-276
-163
-191
-275
-188
-128
-238
-239
-148
-270
-290
-219
-282
-281
-275
-326
-241
-163
-154
-265
-281
-176
-276
-262
-100
-181
-374
-303
-131
-60
-170
-221
-53
21
87
163
0
-58
61
-2
-66
-59
-171
-345
-336
-274
-309
-331
-349
-244
-327
-463
-298
-321
-307
-228
-380
-290
-219
-462
-547
-366
422
1698
2833
3439
2396
297
-618
-468
-342
-113
-90
-302
-186
-81
-208
-163
-41
-171
-266
-100
-4
-142
-138
-21
-90
-140
10
41
-83
-83
-20
17
62
71
-15
43
163
44
23
126
85
138
284
310
181
204
353
287
353
526
514
496
549
549
462
662
935
879
633
661
965
907
905
1017
852
779
779
528
342
365
209
68
1
-101
-92
-159
-147
-80
-211
-168
-183
-288
-156
-86
-145
-336
-367
-282
-214
-122
-138
-157
-202
-183
-169
-125
-38
-183
-197
-139
-234
-216
-166
-117
-186
-323
-215
-95
-109
-81
-198
-303
-274
-259
-198
-146
-172
-296
-340
-133
-141
-259
-143
-192
-287
-182
-104
-211
-268
-192
-357
-391
-153
-110
-251
-208
-96
-289
-240
-38
-80
-191
-208
109
155
-29
52
123
70
29
-72
-299
-276
-346
-442
-198
-119
-369
-402
-194
-311
-438
-277
-345
-419
-264
-187
-396
-513
-445
-625
177
1727
2713
3359
2644
475
-837
-613
-314
-241
-174
-197
-74
-258
-350
-81
-123
-260
-157
-62
-207
-222
-69
-100
-222
-151
-121
-94
39
-16
-48
21
-45
-119
-63
66
12
-42
99
180
121
152
194
79
142
257
256
257
370
445
376
440
563
427
432
757
698
644
890
876
839
933
928
861
783
778
681
460
420
358
162
55
4
-116
-97
-55
-156
-240
-303
-266
-183
-89
-227
-395
-248
-184
-212
-163
-133
-149
-184
-183
-171
-230
-232
-161
-196
-340
-356
-156
-114
-167
-137
-198
-227
-99
-267
-459
-200
-97
-218
-221
-187
-280
-393
-295
-270
-307
-152
-182
-365
-257
-167
-251
-266
-219
-268
-300
-163
-255
-333
-257
-313
-287
-241
-319
-337
-293
-230
-127
-184
-136
23
-34
-7
124
62
-73
15
21
-253
-241
-199
-401
-313
-205
-350
-463
-326
-211
-314
-371
-248
-205
-598
-571
-247
-309
-239
-362
-669
-509
352
1586
2780
3534
2489
232
-795
-572
-356
-196
-85
-197
-180
-89
-269
-286
-84
-76
-273
-319
-114
-114
-82
-59
-116
-66
52
67
-100
-51
55
-2
-80
24
128
33
133
117
-59
66
199
128
175
324
86
74
423
384
307
473
535
480
546
664
547
556
716
711
796
918
902
884
898
873
700
516
629
636
477
413
244
32
60
67
-89
-185
-181
-122
-156
-217
-205
-210
-206
-247
-413
-345
-157
-187
-212
-200
-144
-256
-331
-162
-247
-243
-114
-163
-247
-255
-92
-127
-256
-174
-287
-224
-129
-417
-378
-182
-161
-225
-250
-262
-321
-277
-182
-183
-323
-292
-193
-306
-304
-197
-254
-353
-251
-151
-372
-431
-210
-266
-255
-91
-274
-461
-260
-201
-281
-64
-6
-134
36
10
-177
-92
50
130
23
2
7
-175
-277
-334
-437
-349
-215
-252
-330
-307
-263
-354
-409
-252
-267
-368
-226
-316
-567
-526
-577
-434
797
2235
3180
3233
1607
-262
-946
-575
-74
-105
-105
-46
-95
-189
-270
-153
-101
-97
-75
-128
-124
-223
-283
-124
10
0
-125
-88
-4
-222
-168
165
102
7
185
167
-28
74
243
94
110
268
121
119
312
227
216
350
173
171
515
615
559
606
717
709
649
818
861
733
894
1001
842
857
813
572
516
533
381
254
215
46
-116
-13
34
-137
-241
-188
-143
-214
-292
-248
-206
-262
-157
-122
-246
-180
-156
-259
-177
-102
-183
-201
-87
-114
-266
-240
-186
-208
-123
-66
-112
-215
-404
-311
-183
-160
-84
-209
-177
-50
-240
-441
-309
-123
-160
-191
-131
-145
-271
-280
-313
-320
-142
-148
-295
-208
-141
-555
-550
-111
-117
-205
-165
-169
-224
-185
-20
-98
-150
74
122
-25
-33
105
107
72
31
-152
-241
-177
-274
-510
-383
-134
-269
-290
-190
-270
-285
-400
-462
-324
-215
-183
-235
-341
-593
-629
67
1356
2497
3253
2883
808
-842
-689
-311
-373
-147
-30
-133
-88
-165
-245
-178
-88
-75
-125
-118
-102
-64
-121
-55
20
-83
0
13
-77
25
-16
-30
19
56
167
2
-61
94
118
150
257
172
222
392
20
12
413
472
420
420
575
559
514
649
620
520
687
868
802
887
1041
749
616
854
775
484
545
629
263
93
141
-30
-64
4
14
-64
-107
43
-288
-477
-119
-123
-202
-117
-134
-298
-439
-306
-106
-90
-74
-110
-223
-66
-146
-364
-108
-38
-172
-211
-136
-103
-353
-207
-85
-351
-180
-39
-210
-242
-169
-199
-281
-236
-167
-246
-222
-73
-205
-328
-179
-242
-317
-172
-242
-300
-194
-128
-331
-473
-226
-205
-250
-169
-144
-86
-216
-195
-20
-64
36
95
4
113
92
-122
-152
-157
-279
-278
-178
-252
-341
-446
-577
-375
-158
-178
-295
-268
-219
-513
-484
-211
-327
-555
-544
3
1039
2080
2953
2724
796
-679
-705
-459
-313
-159
-84
-365
-500
-262
-134
-51
-72
-188
-174
-130
-158
-191
-120
-133
-180
-23
-12
-26
-48
-308
-340
-33
136
22
-37
67
-53
-219
54
234
89
97
224
197
89
200
276
217
216
236
364
504
611
560
506
725
843
594
548
796
794
760
756
625
495
586
603
341
275
431
95
-291
-53
-82
-171
36
-86
-232
-55
-196
-536
-404
-171
-128
-204
-173
-204
-199
-278
-622
-422
-99
-50
-116
-213
-132
-133
-199
-135
-146
-392
-420
-60
-39
-200
-121
-115
-217
-329
-313
-271
-211
-143
-130
-224
-407
-301
-208
-197
-122
-219
-239
-165
-430
-499
-145
-129
-275
-198
-151
-229
-225
-39
49
-305
-369
62
129
65
114
34
-27
23
-138
-427
-358
-187
-255
-333
-288
-279
-345
-439
-326
-232
-282
-244
-319
-282
-190
-332
-470
-520
-404
275
1517
2660
3176
2372
389
-833
-635
-277
-100
-148
-297
-184
-214
-174
-126
-211
-92
31
-192
-315
-19
-4
-150
-47
21
-96
14
-42
-288
-43
45
-30
3
49
153
108
1
60
134
51
146
261
127
170
170
70
261
414
452
489
547
653
706
525
416
628
793
882
861
833
900
985
783
411
565
638
546
566
373
155
158
192
-247
-282
-18
-234
-192
-38
-168
-247
-133
-148
-419
-445
-144
-137
-188
-89
-108
-150
-280
-301
-306
-354
-132
-96
-266
-190
-174
-252
-153
-162
-265
-254
-291
-247
-177
-131
-125
-279
-247
-122
-436
-487
-118
-173
-240
-126
-157
-242
-247
-223
-392
-484
-255
-174
-201
-142
-251
-331
-221
-243
-260
-152
-62
-57
-42
124
-32
-206
5
29
-71
-52
-114
-311
-372
-281
-303
-338
-274
-237
-375
-314
-174
-651
-651
-221
-330
-314
-204
-268
-449
-574
-441
215
1489
2664
3285
2566
567
-693
-668
-333
-72
-107
-306
-343
-355
-176
-37
-96
-180
-175
-65
-214
-229
-87
-125
-64
-36
-182
-242
-15
55
-114
-95
21
112
-140
-258
46
82
83
184
126
70
123
134
87
178
280
282
336
426
424
402
558
549
438
596
737
754
809
909
955
841
716
773
842
814
713
484
391
384
34
-140
91
61
-133
-102
-85
-184
-165
-65
-308
-518
-259
-204
-329
-205
-173
-220
-220
-398
-408
-176
-116
-199
-245
-171
-139
-263
-136
-190
-644
-390
-15
-163
-195
-145
-185
-195
-268
-361
-306
-227
-148
-160
-191
-254
-349
-358
-239
-171
-340
-265
-223
-470
-429
-205
-167
-294
-247
-212
-403
-425
-238
-209
-240
-115
-53
-122
-58
51
60
23
-110
-99
5
82
100
-71
-142
-74
-284
-498
-354
-174
-266
-385
-265
-305
-370
-239
-277
-317
-230
-311
-464
-417
-387
-537
-413
494
1738
2876
3555
2374
159
-752
-570
-273
-81
-52
-134
-320
-341
-174
-156
-73
-14
-134
-110
-55
-91
-101
-167
-193
-104
-31
18
12
-52
-121
-121
-52
36
96
70
180
158
-28
1
114
142
96
247
310
217
264
315
334
459
442
356
577
639
651
750
784
865
829
810
884
899
849
866
789
689
684
474
229
253
308
126
17
83
-9
-204
-195
-176
-262
-156
-107
-269
-249
-165
-304
-344
-237
-293
-387
-334
-116
-90
-235
-91
-200
-355
-86
-200
-428
-200
-61
-180
-218
-155
-240
-302
-173
-196
-309
-270
-190
-308
-392
-156
-228
-456
-341
-224
-267
-276
-193
-269
-339
-276
-232
-290
-257
-293
-447
-303
-206
-232
-210
-220
-266
-280
-171
-130
-318
-328
-63
-39
-85
-11
11
13
12
-58
-199
-246
-260
-371
-417
-345
-292
-350
-286
-323
-450
-429
-486
-397
-313
-352
-365
-500
-507
-484
-657
-349
754
1959
2983
3383
1879
-348
-866
-467
-448
-340
-186
-260
-267
-173
-158
-218
-179
-176
-314
-248
-163
-189
-191
-164
-139
-178
-22
-117
-427
-218
36
-14
-91
24
121
-52
-21
113
-10
-18
108
66
-11
229
302
53
136
298
330
397
506
460
342
541
655
611
787
721
573
729
796
774
756
748
815
680
524
469
242
257
237
-14
-94
-107
-119
-234
-287
-232
-354
-335
-108
-263
-408
-190
-197
-318
-244
-258
-350
-236
-234
-422
-258
-52
-199
-294
-226
-160
-253
-307
-158
-182
-296
-224
-183
-288
-277
-171
-305
-438
-255
-264
-372
-120
-107
-324
-315
-250
-240
-283
-305
-309
-296
-252
-299
-330
-259
-234
-393
-304
-126
-348
-470
-306
-179
-216
-111
-113
-351
-247
8
66
42
17
-15
-115
-226
-200
-183
-292
-281
-259
-338
-325
-316
-493
-511
-273
-404
-452
-238
-377
-480
-265
-228
-438
-500
-489
-336
703
2116
2921
2928
1570
-291
-936
-581
-291
-259
-151
-68
-260
-291
-66
-112
-268
-191
-72
-116
-149
-37
-52
-180
-138
-66
-194
-117
-27
-131
6
75
-50
-54
76
92
-52
58
212
36
77
178
88
171
258
231
203
265
366
385
484
624
636
606
598
580
644
817
846
703
702
856
895
776
714
686
460
396
399
184
120
87
-7
-52
-57
-127
-200
-133
-79
-188
-263
-237
-291
-297
-172
-165
-387
-293
-145
-345
-245
-108
-372
-326
-149
-148
-120
-181
-160
-166
-265
-248
-148
-194
-188
-150
-276
-196
-312
-448
-82
-60
-281
-251
-289
-286
-229
-202
-166
-275
-272
-158
-283
-372
-221
-302
-485
-289
-139
-321
-313
-228
-346
-331
-292
-262
-196
-152
-62
-105
-32
135
1
-76
56
-1
-105
-68
-140
-299
-355
-317
-348
-449
-359
-340
-435
-357
-233
-296
-443
-357
-319
-385
-401
-395
-469
-602
-355
368
1625
2850
3203
2274
448
-634
-707
-416
-171
-206
-192
-173
-218
-225
-205
-174
-140
-185
-253
-209
-185
-106
-100
-128
-36
-98
-147
-132
-24
-4
-127
5
-47
-115
34
61
63
80
49
-33
99
163
85
161
250
270
252
348
484
393
409
583
556
503
682
790
608
680
875
887
911
899
623
652
962
719
456
479
369
109
36
103
-13
-98
-97
-169
-190
-216
-223
-244
-360
-262
-71
-290
-366
-151
-293
-310
-169
-241
-232
-116
-190
-273
-137
-182
-271
-210
-261
-207
-181
-286
-189
-264
-330
-171
-234
-184
-87
-250
-286
-186
-227
-303
-224
-168
-355
-411
-223
-265
-401
-164
-131
-348
-200
-113
-314
-275
-185
-428
-414
-198
-248
-316
-275
-290
-220
-46
1
-94
-106
-12
-32
-60
51
133
-1
-25
33
-206
-280
-270
-383
-431
-421
-257
-272
-306
-307
-380
-326
-274
-318
-320
-256
-289
-319
-442
-571
-570
-17
1424
2759
3479
2810
577
-792
-526
-244
-230
-162
-195
-193
-208
-152
-86
-230
-181
-81
-177
-170
-97
-83
-100
-76
-91
-250
-169
-36
-132
-8
113
56
-27
0
143
103
88
139
91
37
160
146
-121
105
309
208
283
421
467
388
525
624
563
631
664
675
729
760
744
834
910
747
841
867
448
462
611
483
350
207
167
48
-116
-98
-99
-190
-183
-178
-266
-346
-293
-224
-346
-370
-285
-329
-345
-314
-255
-204
-153
-163
-257
-228
-151
-238
-262
-135
-220
-427
-246
-173
-375
-226
-215
-283
-226
-230
-217
-350
-278
-143
-274
-273
-287
-331
-292
-270
-277
-348
-228
-161
-293
-288
-301
-399
-333
-269
-274
-185
-128
-202
-326
-322
-266
-319
-320
-193
-179
-221
-172
-105
-146
-70
30
-141
-50
227
70
-114
-8
-176
-372
-233
-242
-332
-248
-221
-364
-420
-281
-395
-509
-300
-296
-414
-409
-314
-313
-463
-569
-366
592
1943
3046
3337
1969
-32
-833
-627
-253
-202
-383
-257
-61
-168
-232
-176
-220
-193
-171
-195
-180
-156
-89
-139
-117
-96
-209
-169
-45
-50
-84
-30
-53
-91
-46
10
24
66
166
118
46
99
129
41
148
406
307
247
400
361
245
483
568
440
695
793
620
672
845
865
798
889
870
672
807
830
489
456
541
354
59
5
129
-74
-217
-28
-96
-272
-206
-194
-241
-231
-257
-285
-259
-318
-365
-270
-154
-124
-240
-192
-96
-212
-213
-93
-177
-279
-180
-180
-317
-164
-41
-377
-387
-184
-299
-250
-90
-260
-323
-124
-169
-345
-280
-141
-325
-396
-260
-236
-255
-218
-200
-290
-227
-278
-412
-295
-208
-232
-287
-239
-238
-366
-308
-221
-288
-243
-84
-62
-215
-92
176
62
31
83
-24
-41
24
-111
-545
-554
-293
-335
-341
-232
-400
-598
-278
-210
-416
-305
-262
-331
-292
-236
-322
-492
-612
-585
127
1498
2607
3237
2504
282
-1033
-714
-228
-226
-268
-160
-151
-236
-220
-123
-146
-257
-161
-131
-230
-110
-76
-192
-164
-26
-106
-222
59
-155
-453
-59
16
-12
117
153
81
49
123
11
-23
121
181
135
167
271
256
181
108
133
401
616
584
534
634
722
670
728
816
787
746
820
836
554
651
880
583
376
428
344
206
210
54
-103
-11
-36
-194
-263
-191
-204
-290
-222
-231
-318
-233
-248
-404
-321
-208
-181
-170
-123
-114
-244
-174
-138
-336
-294
-120
-135
-193
-141
-146
-258
-218
-318
-438
-244
-115
-142
-218
-239
-212
-335
-360
-190
-247
-257
-114
-148
-323
-318
-184
-267
-335
-264
-186
-207
-376
-366
-251
-184
-138
-251
-254
-170
-278
-308
-147
-134
-194
-26
106
-30
-76
64
80
22
65
10
-142
-233
-213
-215
-462
-508
-321
-340
-295
-220
-389
-471
-341
-343
-354
-205
-222
-286
-357
-581
-536
386
1749
2715
3387
2695
418
-883
-512
-175
-235
-94
-59
-206
-132
-218
-389
-187
-63
-110
-89
-70
-49
-116
-154
-76
-118
-63
23
-80
-32
24
-48
-126
-33
143
22
24
171
148
62
172
273
60
113
358
277
127
224
496
373
249
585
614
544
673
666
691
881
815
626
815
931
789
820
973
716
468
657
588
268
261
321
-14
-165
75
-48
-205
-86
-177
-340
-319
-256
-251
-144
-10
-193
-293
-225
-293
-281
-230
-154
-184
-278
-144
-220
-335
-130
-170
-244
-136
-147
-267
-283
-203
-231
-269
-255
-231
-282
-278
-188
-290
-320
-265
-246
-261
-404
-451
-378
-232
-174
-338
-304
-179
-369
-368
-174
-251
-399
-313
-180
-308
-337
-288
-379
-345
-277
-228
-149
-223
-263
-86
-47
7
88
-49
-18
39
-41
27
-122
-367
-320
-218
-360
-451
-307
-267
-291
-323
-323
-389
-377
-236
-324
-365
-243
-254
-463
-623
-483
182
1405
2697
3430
2766
840
-604
-634
-362
-293
-190
-192
-124
-197
-324
-123
-145
-312
-176
-99
-169
-110
8
-117
-286
-147
-87
-112
22
-14
-162
-130
-69
-18
65
92
116
5
17
158
21
66
212
187
212
231
321
216
196
504
504
420
563
550
511
702
715
724
867
832
825
894
916
852
784
832
738
547
522
441
225
143
138
-45
-199
-72
-142
-324
-181
-179
-278
-322
-277
-214
-285
-219
-140
-205
-233
-151
-201
-213
-99
-262
-298
-120
-191
-262
-223
-158
-189
-221
-190
-264
-298
-108
-120
-276
-191
-217
-254
-163
-187
-340
-311
-175
-249
-280
-166
-338
-401
-147
-128
-222
-290
-190
-146
-314
-231
-128
-286
-271
-113
-276
-340
-206
-265
-277
-153
-44
-139
-174
28
-69
-147
120
123
41
133
-23
-101
107
56
-179
-270
-231
-129
-277
-391
-195
-301
-378
-164
-228
-377
-272
-238
-318
-219
-213
-393
-545
-603
-61
1125
2387
3437
3123
1089
-461
-739
-578
-210
-101
-161
-54
-114
-243
-169
-144
-283
-205
5
-144
-199
-6
-23
-122
-84
-49
-124
-135
14
-38
-101
58
-43
-127
40
10
27
118
38
93
168
244
191
11
253
423
255
340
460
348
359
572
625
523
545
637
712
780
802
763
864
1010
837
652
784
807
516
403
431
255
97
63
-41
-81
-105
-152
-137
-155
-125
-293
-370
-134
-235
-338
-187
-182
-252
-274
-214
-228
-284
-227
-196
-238
-137
-251
-422
-139
-97
-267
-207
-91
-115
-261
-219
-136
-280
-309
-178
-222
-332
-251
-260
-415
-316
-205
-224
-261
-221
-197
-317
-247
-187
-364
-365
-211
-242
-296
-299
-351
-248
-52
2
-112
-87
-29
-265
-141
195
108
-1
146
207
95
166
225
-1
-17
200
-54
-348
-269
-142
-199
-464
-352
-215
-313
-272
-300
-345
-220
-191
-307
-315
-258
-292
-380
-466
-598
-231
880
2037
2957
3083
1655
-282
-867
-390
-228
-258
-137
-133
-208
-122
-57
-178
-145
-44
-165
-203
-128
-122
-142
-102
-60
-96
-81
-35
-63
-54
7
31
-61
-74
52
-23
50
10
-173
121
187
118
174
180
280
225
258
322
242
369
530
489
444
550
650
607
644
820
764
701
880
926
843
817
809
681
568
581
406
212
169
39
-45
-52
-54
-98
-200
-179
-214
-357
-211
-119
-318
-233
-177
-317
-193
-60
-247
-337
-184
-219
-233
-148
-121
-192
-230
-129
-221
-271
-121
-205
-316
-182
-136
-245
-154
-65
-200
-314
-228
-208
-305
-256
-277
-301
-318
-263
-185
-245
-243
-238
-302
-265
-183
-254
-286
-258
-243
-202
-172
-196
-291
-243
-189
-267
-237
-162
-195
-272
-121
36
-74
-39
59
63
87
94
60
-29
-55
-161
-309
-266
-154
-271
-374
-239
-267
-370
-340
-349
-348
-234
-165
-220
-293
-254
-316
-534
-525
-209
759
2107
3166
3471
1950
-46
-584
-442
-241
-81
-79
-226
-243
-71
-154
-150
-59
-136
-120
-120
-184
-89
-98
-163
32
119
-21
-7
133
10
-136
-10
62
-51
60
186
3
18
223
179
44
164
249
160
187
299
314
294
460
426
309
568
690
571
602
767
758
736
903
881
811
934
990
902
731
652
625
452
457
408
246
159
-15
-53
-92
-63
-58
-151
-35
-149
-293
-162
-132
-195
-226
-150
-305
-467
-156
-52
-221
-109
-78
-297
-229
-94
-193
-188
-115
-99
-163
-156
-101
-233
-312
-167
-138
-203
-161
-125
-231
-396
-333
-265
-192
-79
-158
-230
-159
-140
-325
-344
-130
-189
-279
-151
-203
-245
-238
-451
-385
-89
-52
-173
-194
-119
-195
-241
-167
-199
-127
-28
-63
-21
20
123
274
-173
-377
150
173
8
-23
-233
-289
-158
-163
-411
-413
-183
-269
-261
-186
-354
-307
-300
-444
-328
-172
-228
-491
-673
-272
703
1759
3039
3637
2162
70
-660
-486
-310
-93
-30
-464
-545
-93
-51
-78
-36
-224
-167
18
-127
-126
26
-15
-84
-115
-84
-100
-94
28
-25
25
236
-132
-176
198
74
41
177
223
170
173
263
255
133
200
352
267
347
503
459
530
631
453
554
890
873
809
864
952
858
903
1021
887
822
847
690
414
398
395
251
183
155
62
-51
-163
-171
-193
-165
-14
-65
-128
-78
-149
-296
-121
-126
-384
-299
-288
-308
-174
-70
-129
-250
-127
-51
-293
-263
-50
-151
-173
-99
-186
-279
-256
-173
-217
-230
-106
-269
-446
-255
-179
-258
-155
-120
-231
-171
-133
-333
-403
-246
-185
-231
-183
-192
-231
-340
-397
-224
-229
-205
-141
-252
-223
-67
-359
-480
-93
-138
-173
39
-1
-22
92
-118
-168
106
120
61
-21
-46
-171
-357
-248
-234
-372
-328
-223
-274
-328
-241
-329
-431
-253
-251
-367
-274
-235
-500
-794
-661
381
1883
3053
3674
2533
290
-650
-527
-416
-215
-104
-176
-118
-116
-226
-157
-131
-336
-357
-149
-79
-100
-5
-9
-49
-49
-105
-66
-43
26
23
-108
26
123
-210
-147
241
138
51
188
136
71
101
100
208
310
365
333
334
459
446
418
575
693
623
687
809
609
565
889
840
765
1026
1000
812
676
711
648
403
373
280
109
103
86
-172
-246
-53
-128
-211
-129
-177
-297
-195
-141
-436
-472
-205
-205
-212
-119
-179
-226
-129
-180
-324
-220
-126
-225
-216
-128
-167
-283
-399
-310
-284
-243
-102
-228
-244
-150
-230
-330
-228
-156
-333
-297
-176
-293
-230
-280
-481
-253
-211
-372
-309
-190
-111
-254
-285
-230
-285
-289
-224
-187
-261
-225
-262
-377
-275
-98
-117
-200
-12
-113
-228
83
81
-15
59
80
-50
-204
-213
-362
-521
-326
-201
-330
-314
-242
-326
-536
-536
-325
-314
-304
-255
-284
-355
-510
-678
-544
445
1717
2731
3380
2342
129
-863
-627
-441
-410
-225
-174
-322
-228
-204
-224
-129
-169
-179
-182
-134
-152
-236
-154
-80
-176
-237
-58
-69
-193
-6
29
-216
-213
2
53
70
108
64
-28
-51
69
127
168
251
181
157
265
178
186
444
526
435
520
579
451
656
882
776
762
900
899
703
664
735
600
568
597
391
130
168
105
-140
-96
-74
-117
-152
-220
-224
-228
-196
-150
-249
-280
-236
-329
-357
-228
-228
-274
-194
-164
-252
-280
-182
-242
-220
-114
-215
-228
-145
-117
-163
-167
-253
-380
-291
-199
-219
-302
-334
-294
-343
-314
-158
-190
-304
-204
-175
-278
-290
-312
-320
-236
-231
-288
-228
-157
-238
-376
-434
-365
-221
-110
-70
-105
-92
-125
-168
-3
149
77
-55
10
32
-172
-376
-448
-381
-394
-290
-172
-361
-401
-279
-360
-395
-295
-293
-332
-276
-258
-370
-453
-578
-602
-61
1153
2320
3000
2819
942
-769
-792
-411
-262
-195
-69
-102
-189
-156
-128
-241
-370
-207
-182
-180
-63
-122
-188
-130
-94
-149
-76
-5
-100
-72
-30
-114
-119
-50
111
65
-26
157
7
-117
218
222
46
159
226
155
148
211
229
298
489
482
443
566
598
603
694
726
702
746
794
854
806
779
720
526
455
373
193
52
100
133
-33
-75
-85
-271
-257
-81
-153
-261
-185
-172
-324
-293
-241
-409
-316
-98
-232
-280
-62
-174
-356
-231
-172
-231
-199
-135
-186
-171
-85
-209
-426
-333
-151
-161
-148
-146
-165
-262
-356
-316
-321
-156
-47
-235
-260
-96
-169
-341
-286
-305
-245
-118
-176
-247
-228
-174
-340
-413
-283
-253
-176
-38
-89
-79
-22
-245
-78
174
111
87
-21
-18
77
-178
-440
-274
-212
-279
-189
-194
-230
-297
-347
-327
-325
-230
-322
-466
-390
-290
-282
-391
-526
-482
364
1668
2603
3151
2439
406
-813
-610
-270
-239
-197
-56
-215
-292
-92
-169
-249
-216
-110
-121
-202
-50
-120
-164
23
-132
-251
-41
36
-112
-93
108
49
-38
56
33
-34
64
81
-1
111
214
131
58
129
258
301
320
368
275
353
585
529
503
674
647
624
804
852
752
843
885
586
733
964
750
606
571
490
266
158
191
20
-76
7
-40
-232
-298
-217
-273
-272
-201
-268
-355
-218
-99
-255
-347
-253
-205
-205
-178
-186
-161
-95
-186
-281
-171
-198
-282
-197
-133
-226
-339
-211
-165
-293
-259
-181
-286
-249
-89
-240
-308
-233
-286
-352
-229
-170
-352
-352
-174
-213
-375
-207
-175
-363
-246
-155
-273
-253
-153
-295
-354
-174
-239
-307
-255
-195
-127
-60
133
76
13
80
14
-43
-81
-45
-189
-321
-182
-284
-374
-234
-272
-358
-316
-297
-375
-353
-309
-403
-410
-243
-346
-539
-514
-615
-288
995
2307
3144
3375
1929
-214
-807
-396
-237
-300
-271
-91
-145
-266
-153
-142
-251
-148
-160
-281
-125
-69
-126
-140
-131
-42
-133
-139
-24
-134
-36
95
-80
-96
37
47
8
55
146
94
33
1
101
64
-23
420
442
307
453
376
441
579
491
503
696
741
719
713
767
875
892
959
831
619
828
735
489
585
523
307
175
181
10
-186
-87
-114
-231
-194
-177
-283
-285
-123
-273
-428
-348
-326
-240
-159
-143
-259
-250
-134
-220
-229
-155
-212
-277
-269
-317
-311
-155
-133
-288
-273
-169
-226
-316
-240
-168
-262
-304
-257
-290
-313
-214
-249
-339
-299
-223
-269
-314
-172
-216
-289
-224
-251
-297
-248
-230
-286
-351
-332
-310
-379
-235
-221
-338
-218
-117
-154
-101
-31
-142
-91
108
82
-25
65
106
-90
-111
-86
-254
-320
-303
-371
-431
-330
-234
-308
-363
-273
-335
-375
-242
-358
-407
-244
-171
-362
-560
-546
-197
1088
2628
3529
3197
1322
-830
-1438
-470
175
17
43
163
30
-82
-43
-20
-101
-96
-27
-106
-104
39
-35
-95
26
21
-70
-21
62
-27
-56
93
108
30
93
125
72
138
201
133
124
240
241
197
297
279
246
341
347
389
355
363
391
395
713
839
766
819
897
900
841
929
958
797
796
720
510
483
361
194
-10
-63
13
-58
-161
-247
-160
-128
-150
-210
-300
-301
-285
-221
-174
-251
-282
-185
-163
-264
-310
-151
-156
-241
-207
-269
-290
-306
-215
-173
-303
-286
-204
-267
-281
-234
-295
-255
-133
-177
-328
-242
-187
-435
-359
-263
-456
-330
-171
-253
-163
-26
-285
-486
-274
-145
-232
-265
-200
-267
-325
-155
-164
-320
-190
-151
-402
-333
-46
-61
-157
-60
-40
-74
72
119
-60
15
89
-82
-118
-157
-292
-326
-259
-320
-354
-291
-277
-257
-358
-432
-288
-255
-427
-284
-227
-431
-341
-453
-679
-246
934
2054
3025
3330
1623
-325
-739
-711
-423
-15
-51
-152
-107
-121
-261
-289
-197
-96
-165
-49
-151
-501
-186
-6
-89
25
40
-27
-63
-85
-53
28
56
-7
-82
52
153
33
-169
-32
225
140
253
248
7
138
224
251
422
511
505
484
554
608
586
628
763
742
697
791
789
797
840
838
728
650
599
366
279
268
244
115
-10
99
-45
-191
-66
-175
-234
-159
-265
-303
-239
-175
-232
-275
-169
-128
-198
-343
-325
-105
-47
-111
-198
-147
-63
-235
-253
-138
-167
-207
-140
-179
-319
-209
-166
-285
-220
-94
-249
-372
-183
-151
-356
-282
-106
-251
-281
-205
-303
-327
-239
-222
-284
-274
-198
-268
-323
-235
-261
-294
-285
-100
-288
-632
-147
-26
-193
19
0
-82
23
-49
-248
-103
-2
-224
-310
-256
-314
-331
-309
-483
-591
-309
-138
-265
-290
-260
-285
-429
-378
-232
-431
-481
-290
275
1440
2572
3133
2190
236
-725
-664
-415
-122
-138
-283
-118
-80
-179
-118
-48
-188
-257
-60
-55
-139
-59
-134
-146
-15
-153
-192
-82
-21
76
32
24
99
-85
-66
168
53
-7
132
127
123
132
6
120
218
194
309
418
457
455
447
373
512
650
677
754
693
721
854
702
568
813
907
760
736
701
511
311
265
238
136
125
63
-125
-85
-70
-384
-320
-60
-180
-231
-168
-162
-347
-377
-155
-276
-259
-79
-131
-164
-222
-209
-237
-221
-90
-201
-172
-151
-358
-368
-204
-114
-142
-98
-88
-236
-208
-166
-431
-405
-80
-85
-200
-167
-52
-392
-786
-236
-29
-321
-115
-95
-239
-174
-180
-233
-310
-341
-278
-219
-130
-162
-289
-270
-162
-207
-170
-7
-51
-16
160
109
-223
-182
64
-134
-146
-93
-260
-325
-167
-258
-597
-338
-189
-366
-283
-213
-304
-401
-220
-294
-489
-285
-368
-594
-108
1074
2160
2959
3092
1532
-403
-706
-335
-270
-116
-163
-253
-85
-101
-162
-181
-129
5
-292
-475
-177
-73
-20
56
-27
-79
-63
-48
-78
-16
83
-4
-22
88
28
-57
84
136
55
27
95
81
-95
219
451
251
364
446
323
383
522
508
561
689
690
757
708
514
686
978
1008
971
943
811
688
659
640
563
435
363
315
133
-41
59
-57
-406
-193
-12
-187
-185
-88
-178
-425
-374
-179
-128
-162
-237
-276
-229
-112
-257
-322
-82
-121
-188
-108
-170
-176
-228
-305
-337
-361
-90
-48
-251
-163
-138
-313
-328
-223
-205
-174
-106
-197
-321
-163
-258
-629
-411
-77
-152
-163
-86
-180
-277
-223
-232
-336
-241
-156
-279
-234
-160
-216
-276
-295
-247
-245
-50
44
-67
-4
34
-44
-133
-25
50
-69
-176
-169
-292
-516
-303
-207
-384
-219
-210
-217
-225
-692
-608
-131
-108
-156
-224
-382
-498
-299
737
2064
2946
3352
2179
15
-745
-373
-160
-150
-289
-328
-226
-115
18
-31
-93
-73
-79
-208
-306
-238
-150
-35
61
19
-79
-34
-8
11
-63
-305
-106
136
83
73
54
125
142
59
64
122
110
107
201
266
281
309
319
320
361
598
702
613
747
766
753
841
730
825
1058
986
881
849
820
752
643
523
382
285
244
217
54
-76
-13
-235
-462
-202
-58
-161
-118
-104
-205
-215
-169
-407
-452
-158
-130
-242
-262
-137
-209
-393
-306
-167
-237
-263
-124
-148
-203
-203
-301
-410
-221
-80
-229
-218
-175
-220
-296
-437
-365
-216
-155
-167
-293
-223
-245
-444
-355
-216
-242
-235
-187
-236
-206
-385
-572
-254
-158
-209
-231
-268
-178
-388
-422
-76
-16
-147
-107
-58
-65
34
-48
-231
-157
-30
-17
-191
-328
-322
-351
-311
-254
-328
-374
-257
-306
-592
-441
-122
-234
-393
-226
-264
-667
-690
-465
242
1580
2814
3407
2641
471
-1142
-859
-215
-172
-198
-110
-67
-200
-269
-300
-246
-173
-266
-146
-110
-138
-49
-70
-127
-214
-282
-301
-83
74
-79
-33
16
-172
-145
4
75
169
134
65
72
3
62
132
73
135
199
274
405
427
251
307
593
615
580
661
721
682
675
721
757
812
845
838
702
681
641
358
275
313
210
54
65
16
-241
-149
-86
-267
-279
-239
-245
-322
-229
-202
-326
-160
-387
-650
-221
-76
-270
-238
-118
-231
-407
-353
-259
-150
-104
-162
-238
-282
-165
-268
-380
-156
-229
-366
-139
-182
-397
-256
-175
-367
-432
-294
-214
-306
-384
-276
-237
-267
-282
-357
-331
-238
-261
-381
-350
-261
-324
-374
-305
-265
-259
-201
-184
-186
-215
-257
-318
-230
-21
11
-49
6
-83
-275
-84
-136
-375
-318
-215
-202
-369
-339
-345
-432
-341
-302
-396
-579
-359
-199
-343
-288
-513
-700
-436
267
1471
2621
3292
2503
374
-793
-676
-488
-151
-56
-288
-229
-74
-134
-380
-414
-283
-217
-100
-33
-106
-64
-11
-128
-79
-87
-153
-68
-11
27
-48
-14
-16
-185
-164
57
174
29
97
237
153
63
117
181
134
271
344
270
371
489
325
259
564
657
619
821
814
729
831
759
707
795
881
804
641
699
558
168
228
326
144
76
41
-117
-156
-112
-275
-314
-115
-73
-142
-238
-390
-340
-288
-264
-193
-299
-250
-186
-292
-175
-165
-239
-187
-169
-236
-348
-213
-130
-177
-168
-180
-212
-233
-165
-227
-297
-202
-199
-166
-243
-446
-312
-200
-206
-201
-251
-172
-151
-208
-367
-289
-86
-344
-299
-101
-272
-321
-284
-273
-233
-183
-223
-236
-226
-413
-339
-7
47
-97
-89
106
76
-36
40
-46
-137
-63
-344
-482
-193
-231
-355
-284
-173
-311
-482
-346
-291
-283
-207
-196
-199
-265
-539
-596
-466
-64
1051
2181
3108
3310
1666
-420
-862
-365
-197
-93
-46
-175
-158
-75
-239
-284
-109
-179
-177
-43
-22
-127
-160
33
82
-88
-75
-59
-81
1
51
61
39
31
-15
-79
79
170
67
265
195
12
166
294
301
150
311
463
289
338
463
451
637
852
705
720
872
715
719
797
923
1047
946
871
779
714
679
472
273
290
221
113
35
-24
-104
-238
-88
-115
-339
-216
-180
-244
-228
-169
-180
-286
-165
-206
-405
-228
-114
-273
-288
-281
-276
-211
-121
-150
-210
-165
-221
-307
-300
-163
-145
-215
-164
-118
-304
-428
-289
-230
-187
-108
-172
-279
-148
-245
-472
-246
-156
-311
-285
-159
-201
-241
-308
-367
-344
-251
-125
-241
-239
-152
-292
-355
-270
-275
-234
-129
-212
-199
-92
-99
-54
-66
-6
100
-5
-76
62
49
-95
-54
-165
-382
-367
-282
-234
-251
-280
-255
-277
-402
-446
-347
-222
-270
-357
-311
-482
-547
-453
-428
292
1625
2853
3550
2620
612
-549
-601
-266
-76
-127
-197
-181
-223
-174
-122
-230
-201
-81
-87
-39
-122
-269
-165
-175
-91
59
-20
-2
47
-145
-191
57
58
-35
88
164
63
-135
-22
148
96
241
333
168
249
305
2
228
569
452
482
610
594
568
758
667
427
745
1002
901
879
971
949
762
728
743
586
465
469
281
-94
-4
147
-70
-72
-18
-169
-190
-68
-334
-502
-148
-99
-267
-219
-137
-302
-414
-188
-164
-259
-169
-119
-274
-244
-131
-263
-276
-171
-146
-185
-111
-138
-246
-150
-261
-435
-246
-124
-208
-254
-232
-158
-309
-342
-78
-213
-386
-216
-259
-342
-291
-323
-337
-289
-265
-254
-189
-217
-281
-265
-258
-289
-367
-240
-79
-445
-506
-131
-238
-264
-15
-47
-83
-6
-40
7
22
-10
-9
-56
59
-115
-450
-285
-111
-237
-365
-379
-435
-483
-246
-110
-306
-355
-317
-367
-331
-343
-373
-375
-657
-756
126
1542
2748
3434
2826
842
-662
-746
-411
-150
-103
-116
2
-165
-318
-140
-133
-252
-160
-121
-212
-96
-61
-279
-126
104
-7
-45
-52
-134
-228
5
194
25
97
87
-72
56
202
127
-7
108
176
79
194
191
115
262
388
399
424
535
552
453
551
730
643
653
842
769
663
780
897
867
851
854
714
543
454
430
317
200
201
-32
-199
-66
-139
-225
-106
-153
-373
-299
-161
-305
-297
-196
-268
-179
-99
-259
-316
-169
-72
-179
-249
-276
-253
-159
-149
-181
-226
-190
-184
-345
-303
-148
-247
-238
-143
-154
-237
-349
-292
-339
-268
-104
-275
-283
-115
-255
-445
-282
-207
-354
-280
-186
-241
-275
-302
-259
-278
-356
-235
-220
-228
-145
-226
-310
-294
-268
-203
-47
-24
-75
-13
-44
-109
-42
102
121
-42
-111
-154
-278
-283
-281
-331
-281
-225
-315
-459
-395
-365
-410
-297
-364
-400
-318
-241
-227
-449
-610
-523
349
1678
2742
3258
2204
164
-777
-638
-439
-230
-224
-268
-200
-195
-236
-282
-199
-206
-116
-30
-159
-149
-87
-121
-169
-96
-61
-106
-28
75
-135
-226
85
0
-95
93
64
-3
79
106
-59
39
279
244
207
288
216
63
235
488
478
499
612
592
609
634
563
620
790
898
841
818
930
824
674
702
538
400
543
469
192
145
52
-120
-131
-84
-107
-175
-92
-155
-354
-223
-208
-373
-217
-65
-282
-370
-128
-227
-357
-234
-176
-117
-134
-129
-156
-244
-156
-145
-226
-202
-270
-323
-208
-111
-114
-212
-325
-305
-244
-219
-209
-206
-267
-266
-248
-407
-243
-99
-321
-293
-195
-309
-324
-239
-247
-387
-335
-161
-266
-315
-169
-239
-463
-321
-191
-304
-242
-190
-232
-202
-106
-104
-123
0
46
29
-21
-61
-124
-101
3
-148
-344
-331
-256
-331
-349
-272
-354
-373
-261
-426
-478
-287
-360
-375
-283
-287
-340
-488
-624
-331
787
2059
2957
3247
1901
-72
-746
-513
-244
-128
-212
-167
-164
-310
-200
-152
-283
-255
-174
-131
-106
-89
-85
-189
-165
-156
-241
-40
16
-210
-136
66
26
-70
-71
-5
-46
-4
174
-10
-93
185
187
53
157
258
180
250
392
274
293
439
430
405
545
646
548
699
832
731
645
593
787
888
773
735
506
414
531
273
132
209
-43
-150
-13
-94
-239
-219
-208
-315
-298
-160
-195
-345
-278
-252
-340
-299
-177
-218
-312
-200
-348
-361
-97
-137
-268
-222
-136
-199
-260
-243
-179
-208
-261
-223
-333
-312
-175
-281
-336
-243
-308
-402
-257
-170
-279
-308
-210
-224
-289
-308
-343
-298
-226
-238
-314
-335
-225
-245
-343
-227
-224
-372
-295
-210
-240
-258
-399
-358
-204
-210
-176
-186
-138
-133
-183
-60
53
30
22
118
-5
-172
-5
-16
-282
-343
-239
-225
-325
-294
-259
-418
-383
-312
-368
-268
-265
-338
-311
