-420
0
0
0
0
0
0
0
0
0
0
0
0
0
0
0
0
0
0
0
0
0
0
0
0
0
0
0
0
0
0
0
0
0
0
0
0
0
0
0
0
0
0
0
0
0
0
0
0
0
0
0
0
0
0
0
0
0
0
0
0
0
0
0
0
0
0
0
0
0
0
0
0
0
0
0
0
0
0
0
0
0
0
0
0
0
0
0
0
0
0
0
0
0
0
0
0
0
0
0
0
0
0
0
0
0
0
0
0
0
0
0
0
0
0
0
0
0
0
0
0
0
0
0
0
0
0
0
0
0
0
0
0
0
0
0
0
0
0
0
0
0
0
0
0
0
0
0
0
0
0
0
0
0
0
0
0
0
0
0
0
0
0
0
0
0
0
0
0
0
0
0
0
0
0
0
0
0
0
0
0
0
0
0
0
0
0
0
0
0
0
0
0
0
0
0
0
0
0
0
0
12
137
-35
197
279
-58
75
225
-1
7
168
-24
-198
22
-23
-334
-242
-33
-196
-300
-3
-103
-308
-46
-166
-323
-99
64
-152
-248
-11
-138
-187
59
-96
-339
-101
49
-206
-221
49
-72
-259
-105
-44
-123
-34
31
-230
-184
24
-127
-204
-52
2
-292
-205
19
-293
-298
-28
-151
-306
-83
-102
-371
-105
49
-258
-244
-42
-236
-363
-67
-131
-380
-244
-157
-286
-191
-66
-275
-282
-6
1
-136
21
87
-139
-4
221
38
60
270
195
14
10
18
-186
-308
-256
-315
-283
-101
-248
-421
-259
-126
-398
-433
-93
-209
-545
-386
315
1308
2796
4264
4213
3237
2356
1161
422
502
302
-261
-292
-168
-497
-536
-259
-412
-608
-396
-340
-593
-525
-309
-486
-549
-259
-383
-631
-373
-230
-529
-437
-189
-405
-403
-191
-332
-496
-222
-156
-476
-281
4
-203
-239
-16
-135
-267
-58
-45
-129
36
70
-168
-85
190
-23
-175
40
42
-61
100
159
-20
-11
120
-86
-275
-55
-104
-307
-102
12
-255
-211
-2
-245
-318
-4
-45
-450
-347
40
-102
-177
13
-108
-290
-135
-97
-388
-192
119
-122
-135
110
-76
-358
-34
162
-262
-206
151
-107
-276
91
69
-346
-132
46
-263
-132
1
-208
-238
-62
-72
-257
-85
-48
-387
-103
78
-358
-222
10
-222
-292
-87
-69
-314
-193
-13
-236
-217
6
-234
-442
-91
-23
-278
-100
-24
-254
-199
22
64
-22
5
34
-14
148
222
40
224
416
169
37
136
40
-280
-235
-38
-342
-364
-99
-311
-395
-251
-199
-373
-304
-23
-437
-574
276
1350
2715
4272
4522
3389
2302
1312
538
521
455
-145
-404
-247
-332
-513
-375
-254
-511
-488
-241
-477
-619
-301
-265
-474
-363
-108
-424
-605
-177
-262
-468
-183
-144
-501
-303
-36
-339
-331
-258
-268
-102
-6
-96
-225
-161
83
-106
-321
100
46
-171
50
41
-125
-46
28
-112
-58
219
109
-107
151
25
-197
108
115
-253
-244
97
-118
-351
-124
-106
-200
-118
-87
-279
-264
-48
-231
-421
-80
-34
-372
-206
-25
-225
-188
-50
-154
-294
-214
-2
-128
-174
58
-118
-214
28
-155
-233
113
1
-259
-95
43
-156
-264
-73
-75
-196
-89
-58
-238
-195
-74
-296
-242
21
-175
-303
-95
-92
-303
-183
31
-179
-206
146
-110
-350
29
-7
-302
-214
-54
-141
-181
-54
-229
-234
148
133
32
145
141
-1
126
362
328
275
409
319
36
185
156
-139
-41
18
-161
-308
-197
-203
-426
-225
11
-238
-289
11
-183
-554
22
1073
2199
3826
4777
3902
2466
1622
863
475
522
116
-315
-242
-233
-448
-401
-154
-350
-589
-329
-239
-424
-363
-208
-448
-501
-128
-278
-425
-113
-315
-565
-142
-23
-431
-331
16
-198
-316
-112
-161
-287
-118
60
-89
-158
0
-63
-173
96
202
-83
-16
221
48
-48
141
128
7
10
119
64
36
225
25
-215
71
96
-188
-54
-20
-227
-170
-118
-260
-304
-138
-184
-287
-60
-101
-367
-143
6
-358
-262
41
-180
-322
-100
18
-293
-178
108
-247
-158
53
-205
-180
39
-25
-271
-158
103
-94
-132
86
-127
-298
-102
-23
-169
-197
-3
-153
-344
-129
-98
-262
-165
-23
-194
-143
4
-207
-274
-23
-92
-253
-43
-71
-313
-136
-6
-355
-271
16
-111
-178
-48
56
-37
12
123
-89
-107
189
226
75
236
185
-104
150
255
-79
-132
-124
-439
-431
-90
-186
-410
-322
-178
-326
-414
-168
-244
-491
-483
-67
963
2563
4065
4320
3411
2307
1227
450
430
231
-259
-377
-267
-414
-604
-264
-308
-654
-517
-458
-615
-496
-314
-457
-498
-343
-414
-583
-426
-211
-517
-553
-173
-369
-377
-59
-233
-415
-165
-88
-454
-369
31
-222
-331
-18
-168
-255
32
41
-201
-9
248
-35
-238
46
186
-142
-22
257
-65
-67
231
-14
-92
59
-125
-180
10
-61
-394
-188
75
-167
-288
-75
-117
-341
-125
4
-212
-253
-60
-205
-320
-5
-97
-392
-158
-4
-201
-113
22
-169
-273
-47
-117
-344
3
22
-335
-113
72
-186
-204
79
5
-176
-20
-34
-282
-248
2
-163
-310
-33
-173
-285
29
-41
-278
-118
82
-160
-306
-26
-88
-298
-146
-112
-294
-259
-27
-210
-390
22
-29
-311
-13
-50
-194
-51
87
94
-164
15
125
-97
260
302
107
436
457
125
45
171
68
-163
-83
-20
-242
-251
-106
-316
-407
-128
-203
-299
-32
-53
-473
-308
676
1763
3121
4543
4448
3049
2112
1136
330
479
279
-136
-136
-168
-428
-528
-307
-268
-472
-444
-250
-465
-571
-216
-259
-593
-450
-214
-359
-323
-191
-349
-373
-261
-265
-270
-84
-122
-391
-183
55
-304
-397
88
68
-180
10
53
-76
51
68
-148
18
254
69
-129
117
298
-26
40
274
92
84
180
32
34
221
38
-158
-17
-35
-153
-160
-44
-30
-197
-114
-59
-218
-99
-49
-250
-210
-84
-121
-212
-88
21
-150
-145
-48
-313
-257
125
59
-256
-167
129
-241
-237
98
-206
-157
132
-28
-182
-67
13
-99
-140
-64
-90
-238
-266
-43
-76
-24
26
-298
-176
-37
-237
-181
-28
-152
-280
-103
-40
-225
-202
-87
-247
-262
-5
-104
-359
-206
-62
-241
-186
2
-166
-263
31
146
-178
-103
140
-77
94
400
165
171
387
175
-25
143
120
-240
-266
-87
-212
-286
-92
-246
-648
-410
-104
-308
-267
-109
-409
-527
172
1193
2491
4092
4640
3589
2291
1454
694
265
316
92
-399
-392
-264
-499
-523
-332
-525
-636
-358
-416
-577
-461
-402
-507
-500
-333
-371
-464
-317
-241
-429
-379
-164
-345
-329
-143
-349
-358
-168
-184
-277
-92
64
-388
-240
287
-163
-242
194
15
-105
133
63
-75
47
150
70
-25
179
188
-34
174
211
-70
15
144
-19
-159
-65
-66
-186
25
53
-276
-192
21
-303
-383
8
-1
-256
-105
16
-248
-243
-73
-169
-246
-25
-46
-251
-92
-49
-218
-110
19
-135
-291
-94
83
-199
-153
23
-230
-166
75
-218
-352
23
-2
-223
-32
52
-278
-248
55
-201
-272
81
-106
-382
-88
49
-208
-167
8
-151
-271
-157
-29
-164
-154
92
-147
-254
23
-110
-308
-107
-73
-243
-56
-16
-307
-171
65
-47
-89
161
99
-171
138
332
94
287
516
252
159
360
149
-162
64
40
-344
-263
-13
-236
-432
-97
-183
-401
-121
-144
-231
-241
-363
76
1372
3055
4362
4491
3599
2370
1217
622
594
388
-92
-162
-215
-420
-277
-320
-532
-395
-272
-480
-528
-225
-286
-569
-338
-131
-417
-330
-80
-335
-415
-184
-212
-424
-276
-71
-252
-254
-73
-195
-225
-54
-119
-231
-80
129
-48
-48
258
56
-176
22
156
20
99
234
2
112
325
80
65
179
176
188
168
135
-30
-22
77
-65
-189
-31
31
-223
-180
24
-106
-126
23
-228
-291
147
58
-293
-93
22
-260
-139
96
-185
-126
37
-110
-97
51
46
-165
-119
80
-72
-202
56
-69
-244
110
86
-261
-166
42
-144
-98
111
-94
-195
-80
9
-160
-160
138
-101
-261
-39
-173
-186
-30
-43
-157
-83
40
-240
-225
90
-26
-282
-74
44
-169
-82
84
-43
-104
171
193
-144
23
236
71
233
436
214
188
444
307
31
126
165
-160
-187
-6
-262
-322
-4
-113
-255
-137
-168
-309
-157
-23
-426
-309
765
2076
3539
4727
4411
2804
1663
1133
567
343
223
-121
-307
-283
-326
-398
-371
-279
-381
-494
-283
-345
-541
-314
-282
-421
-351
-185
-258
-389
-149
-167
-341
-154
-163
-364
-215
-138
-186
-196
12
83
-162
68
177
-115
-47
204
52
-66
165
139
-25
99
168
125
160
242
160
74
299
244
-5
143
206
8
-44
41
-37
-146
32
-42
-267
-104
-84
-241
-151
30
-66
-225
-54
12
-194
-119
46
-161
-186
77
-79
-302
95
221
-111
-16
78
-75
-98
74
33
-87
105
34
-194
30
78
-264
-74
188
-46
-129
31
-16
-173
-10
75
-168
-72
79
-147
-181
30
-35
-278
-39
39
-260
-196
0
-33
-132
26
-96
-262
44
76
-146
-12
210
27
-54
206
0
-146
306
450
270
390
476
66
-20
269
35
-86
44
-89
-257
-173
-68
-257
-325
-266
-287
-278
-73
-11
-347
-406
-26
756
2157
3854
4677
3908
2690
1610
659
512
488
-94
-443
-214
-156
-468
-356
-357
-680
-477
-247
-379
-511
-341
-308
-609
-549
-422
-527
-343
-179
-400
-450
-205
-356
-602
-289
-98
-429
-330
-20
-235
-307
-95
-196
-328
-70
31
-171
-138
-18
-59
22
106
32
-140
7
199
-50
3
225
20
-120
107
106
-101
6
108
-148
-255
-12
-134
-336
-63
-44
-466
-294
67
-324
-300
52
-141
-329
-112
-6
-260
-132
-31
-317
-252
-47
-253
-309
-19
-180
-390
-80
78
-138
-180
-9
-111
-222
-23
-62
-257
-115
-34
-215
-284
-111
-179
-302
-32
-116
-308
-162
-112
-358
-346
-24
-312
-435
-176
-222
-192
-106
-224
-385
-216
-89
-305
-373
-191
-186
-423
-320
-133
-316
-272
-80
-230
-225
38
5
-149
-5
127
-29
64
260
18
-154
15
-10
-240
-290
-237
-317
-346
-196
-408
-492
-217
-435
-615
-385
-285
-381
-475
-479
-249
747
2505
3984
4348
3597
2354
1166
534
440
181
-250
-450
-370
-493
-559
-463
-596
-484
-275
-571
-718
-382
-401
-587
-453
-394
-535
-546
-342
-318
-563
-507
-340
-384
-304
-307
-544
-491
-179
-215
-379
-205
-219
-482
-246
-11
-230
-252
-105
-184
-286
22
50
-249
-10
152
-108
-251
35
85
-14
187
95
-174
-98
-54
-361
-223
150
-176
-429
-77
-154
-568
-423
-240
-450
-410
-161
-341
-526
-294
-196
-472
-402
-126
-348
-383
-98
-317
-471
-151
-265
-558
-314
-221
-498
-316
-105
-293
-336
-162
-177
-370
-261
-185
-373
-291
-68
-252
-378
-115
-267
-498
-217
-142
-338
-282
-182
-419
-482
-114
-41
-369
-415
-88
-216
-340
-105
-243
-346
-152
-208
-446
-225
25
-258
-356
-119
-223
-332
-119
-134
-163
91
81
-172
-162
77
68
-42
270
477
117
103
203
-172
-46
132
-259
-295
-77
-274
-487
-324
-208
-327
-376
-137
-175
-390
-237
-415
-504
600
2035
3236
4356
4189
2917
1802
1024
600
302
78
-10
-297
-436
-295
-479
-535
-310
-401
-530
-435
-350
-456
-514
-391
-431
-471
-309
-395
-476
-227
-205
-405
-390
-186
-323
-383
-94
-229
-396
-195
-161
-289
-91
109
-21
-95
56
105
-49
159
357
-72
-13
343
29
-34
337
237
105
366
363
175
228
181
77
93
114
57
-144
-133
42
-80
-150
80
-49
-199
63
23
-262
-119
116
-178
-295
174
6
-239
202
-12
-328
31
22
-173
-37
38
-43
-100
25
8
-83
107
78
-88
-43
131
162
67
68
-46
-51
59
93
-56
-191
51
-10
-218
110
106
-275
-13
206
-131
-88
124
-130
-197
52
101
-70
-60
81
-93
-189
-27
8
-141
57
123
-220
-79
147
-170
-207
234
81
-153
217
256
-56
102
388
68
79
617
430
44
301
460
33
-46
170
-87
-225
-87
-146
-255
-86
-41
-381
-258
-8
-225
-242
-150
-374
-18
1301
2745
3989
4628
3867
2254
1284
916
532
284
153
-50
-372
-270
-186
-603
-438
-36
-285
-488
-292
-256
-402
-308
-254
-463
-346
-239
-380
-279
-113
-215
-468
-183
-4
-392
-357
-45
-98
-225
27
33
-324
-139
139
-107
-83
200
-42
-166
191
221
-35
108
321
96
59
305
46
-125
406
476
-18
63
286
-8
-109
99
-125
-323
26
-24
-284
-51
-73
-457
-294
68
-146
-332
-150
-69
-377
-398
70
-195
-341
17
-176
-330
-164
-73
-240
-253
-102
-179
-212
-108
-200
-325
-72
0
-337
-224
57
-154
-213
63
-105
-343
-42
22
-208
-77
61
-137
-182
-2
-149
-244
-16
-101
-293
-76
136
-105
-126
133
-106
-246
103
-24
-248
-48
-25
-111
-34
87
171
67
76
237
85
79
221
296
318
390
469
314
384
400
170
182
240
6
-184
-1
-21
-208
-4
46
-184
-54
-6
-249
-113
107
-224
-294
749
2153
3444
4743
4664
3032
1829
1245
742
476
299
-57
-290
-113
-13
-298
-364
-149
-224
-334
-185
-241
-443
-229
-63
-214
-346
-199
-98
-301
-111
-86
-297
-6
43
-272
-223
69
-89
-278
48
83
-201
-22
121
-53
21
229
99
-34
242
347
44
74
361
140
28
359
278
22
242
326
140
214
213
21
57
195
5
-178
28
43
-229
-151
-20
-220
-147
61
-100
-214
11
-21
-240
-106
3
-126
-164
43
2
-208
-64
1
-140
-105
8
-82
-108
93
14
-145
-15
-18
-122
-24
53
-107
-118
152
-29
-228
63
47
-246
-33
108
-406
-221
234
-116
-273
17
-10
-284
-130
70
-202
-251
-67
-160
-200
-61
-52
-262
-156
92
-109
-110
169
60
-43
77
84
-19
109
369
228
103
264
156
-129
-78
5
-248
-207
19
-300
-492
-168
-159
-398
-249
-164
-365
-297
-288
-524
-187
902
2075
3394
4600
4139
2516
1555
1042
415
196
101
-302
-299
-97
-379
-660
-442
-308
-521
-603
-425
-417
-568
-348
-370
-620
-354
-193
-421
-361
-366
-459
-397
-330
-142
-341
-282
-61
-411
-355
8
-107
-294
-145
-72
-174
-43
58
-130
-59
148
-17
-78
222
224
-165
-99
275
127
76
307
108
-48
201
140
-108
-8
-25
-183
-194
-29
-43
-291
-138
41
-357
-334
84
-166
-284
-61
-154
-228
-116
-144
-299
-129
-30
-239
-188
-24
-127
-251
10
101
-351
-191
199
-112
-98
126
-36
-49
103
76
-24
64
114
-89
-113
20
-196
-306
-14
-181
-448
-248
-113
-321
-491
-244
-292
-477
-206
-177
-424
-386
-259
-368
-514
-350
-192
-286
-243
-196
-155
75
255
173
239
364
281
246
398
387
123
202
251
78
-1
-67
-102
-104
-78
-38
-225
-284
-126
-301
-283
-30
-224
-519
-389
56
809
2307
3986
4408
3618
2660
1491
594
601
338
-182
-128
-84
-466
-592
-226
-315
-572
-508
-488
-498
-421
-278
-371
-461
-319
-311
-476
-419
-308
-406
-372
-192
-266
-415
-178
-191
-389
-161
-212
-455
-188
5
-268
-241
41
-59
-165
48
-5
-190
48
147
24
43
191
134
15
164
180
115
153
157
44
-34
33
-34
-77
-14
-105
-125
-75
13
13
-57
5
-120
-224
-63
-139
-321
-145
-72
-232
-190
7
-58
-205
-80
-171
-249
5
126
-65
-252
-60
18
-297
-148
102
-161
-100
-8
-180
-92
-8
-105
-177
-110
-28
-261
-306
98
-206
-304
168
-63
-256
-49
-130
-369
-153
134
-125
-304
-42
-56
-237
-172
-131
-151
-117
-40
-146
-265
-96
-128
-240
-55
-22
-143
32
129
-104
-92
197
202
106
320
260
38
310
325
24
-120
-97
-121
-242
-69
-182
-417
-230
-118
-257
-316
-121
-232
-413
-183
-412
-565
590
2189
3280
4287
4277
2860
1688
1006
726
434
34
-81
-345
-473
-355
-490
-615
-511
-461
-491
-508
-406
-483
-556
-327
-388
-561
-342
-371
-569
-308
-235
-489
-410
-138
-260
-445
-234
-102
-311
-282
-116
-279
-247
-42
-30
-205
-145
84
-128
-92
207
19
-46
182
130
9
74
161
22
144
313
-25
-47
290
106
-264
-56
151
-98
-146
-7
-160
-203
-78
-173
-228
-81
-191
-288
-97
-76
-121
-164
-79
-95
-368
-165
19
-217
-237
-122
-107
-214
-121
22
-278
-231
70
-197
-225
-6
-159
-190
18
-54
-297
-180
11
-212
-293
-9
-95
-206
36
-111
-310
-81
-51
-271
-248
19
-122
-318
-98
-193
-263
-71
-138
-276
-170
-118
-235
-153
-33
-224
-291
-15
19
-196
-89
7
-195
-102
179
-40
-178
157
234
61
91
325
279
116
328
287
-23
52
158
-132
-217
-116
-322
-299
-63
-151
-367
-176
7
-442
-410
60
-393
-460
689
1738
3083
4614
4471
3023
1876
1161
535
377
362
-124
-436
-243
-247
-558
-477
-226
-482
-536
-236
-445
-681
-399
-315
-474
-342
-179
-458
-612
-220
-206
-421
-336
-199
-285
-264
-60
-286
-323
-10
-222
-317
-40
-23
-79
-73
105
63
-166
106
237
-42
112
227
-50
67
320
117
134
364
161
-41
178
354
116
41
80
-28
-21
40
-50
-223
-5
100
-208
-165
26
-326
-460
69
83
-191
-61
-5
-204
-243
-13
-132
-266
-60
-141
-312
-102
54
-133
-124
51
-125
-195
46
-72
-180
50
3
-227
-86
62
-164
-181
91
-104
-305
-39
-112
-217
23
63
-133
-150
-33
-136
-205
-14
8
-211
-160
-11
-162
-175
10
-104
-263
-124
-55
-261
-183
112
-60
-195
128
123
-160
20
221
100
96
339
338
140
295
289
36
155
135
-166
-110
-45
-280
-263
-131
-237
-343
-196
-97
-339
-328
-37
-244
-495
237
1432
2667
4226
4642
3357
2147
1409
601
300
339
-7
-262
-272
-317
-525
-494
-253
-456
-577
-392
-475
-558
-329
-328
-504
-372
-399
-520
-296
-90
-314
-489
-300
-191
-201
-219
-112
-254
-384
-89
-106
-283
-93
-21
-209
-103
122
-68
-183
126
99
-118
38
182
79
78
254
8
-142
190
88
-90
105
109
-108
-83
27
-153
-184
18
-56
-254
-153
-159
-230
-106
-71
-167
-342
-178
-49
-278
-172
-133
-415
-262
-14
-271
-389
-110
-186
-435
-245
-161
-301
-113
13
-243
-248
77
4
-330
-166
76
-275
-323
35
-204
-327
-100
-135
-273
-174
-85
-342
-331
-130
-262
-359
-215
-217
-404
-228
-38
-356
-388
-155
-296
-339
-120
-94
-286
-281
-144
-266
-199
-9
-155
-203
-62
-121
-189
18
156
37
257
315
-175
-103
151
-44
-265
-219
-150
-443
-467
-231
-415
-517
-352
-328
-400
-348
-308
-535
-528
-29
701
2084
3751
4309
3549
2559
1610
473
168
218
-275
-521
-406
-396
-480
-444
-405
-542
-526
-338
-524
-592
-350
-425
-561
-473
-420
-515
-452
-258
-456
-587
-263
-327
-577
-365
-280
-382
-388
-325
-265
-357
-327
-322
-283
-17
-35
-181
-101
-83
-131
-82
49
20
-179
13
153
-185
-84
259
93
-3
154
49
-56
28
-95
-170
-60
-14
-232
-418
-158
-246
-488
-112
-33
-446
-379
-57
-299
-429
-141
-206
-304
-211
-209
-380
-420
-176
-184
-340
-235
-296
-429
-106
-74
-407
-198
-15
-332
-299
-16
-258
-413
-168
-112
-204
-370
-398
-271
-365
-442
-323
-306
-308
-295
-473
-435
-210
-341
-518
-269
-320
-536
-280
-236
-503
-456
-228
-436
-546
-218
-322
-590
-354
-118
-403
-520
-115
-4
-226
-177
-67
-224
-134
117
-94
-139
274
109
-160
160
-70
-504
-150
-90
-427
-382
-273
-489
-624
-335
-304
-514
-431
-339
-464
-684
-558
-28
865
2313
3733
4283
3608
2325
1175
560
515
228
-346
-293
-217
-678
-620
-395
-803
-697
-370
-580
-631
-562
-541
-593
-514
-432
-678
-584
-336
-570
-616
-355
-332
-654
-606
-262
-564
-596
-218
-320
-473
-241
-237
-468
-211
-53
-274
-331
-120
-132
-330
-120
14
-252
-105
-3
-271
-124
-37
-161
-71
32
-7
-193
-120
1
-357
-315
42
-237
-437
-236
-348
-506
-214
-101
-454
-434
-218
-405
-468
-194
-247
-430
-300
-232
-346
-336
-186
-334
-394
-143
-185
-421
-260
-47
-334
-373
-261
-298
-157
-96
-245
-290
-84
-60
-326
-341
-173
-334
-353
-156
-274
-462
-285
-116
-381
-274
-42
-294
-359
-173
-184
-372
-330
-197
-364
-385
-173
-325
-506
-165
-26
-384
-312
-82
-280
-387
-226
-189
-357
-109
94
-210
-85
62
-158
-89
-35
-43
188
353
176
-108
37
161
-260
-339
-93
-247
-360
-273
-298
-453
-374
-243
-448
-509
-241
-255
-575
-519
4
904
2366
4025
4464
3534
2439
1283
564
524
235
-193
-233
-343
-626
-542
-425
-519
-559
-435
-410
-629
-582
-383
-562
-531
-234
-557
-657
-393
-519
-468
-297
-262
-389
-405
-239
-400
-550
-218
-225
-511
-227
-101
-365
-311
-34
-40
-281
-97
59
-139
2
132
-80
-47
160
8
-85
79
88
-38
87
217
-11
-155
-41
-38
-189
-43
57
-391
-348
30
-255
-290
-7
-189
-363
-191
-188
-425
-222
78
-120
-247
-121
-191
-313
-117
-93
-292
-104
-100
-308
-119
25
-170
-241
-4
29
-197
-141
15
-208
-330
-75
-44
-309
-65
122
-204
-180
-15
-100
-204
-98
-55
-166
-67
-47
-255
-143
8
-170
-172
-80
-250
-263
-4
20
-186
-162
-10
-86
-120
3
-7
-151
-12
54
-170
15
248
109
54
153
113
113
325
498
309
200
309
66
-140
9
2
-128
14
41
-183
-185
-5
-189
-388
-30
-15
-269
-89
-239
-426
471
1872
3104
4381
4563
3121
1783
1177
757
359
79
-54
-291
-371
-257
-495
-530
-261
-307
-464
-377
-236
-410
-485
-233
-254
-482
-386
-298
-458
-352
-133
-342
-420
-110
-195
-391
-174
-107
-376
-299
74
-120
-206
103
-71
-294
-73
109
-73
23
272
16
-26
222
155
-47
145
247
-73
69
264
-2
13
296
181
-192
-87
178
-77
-121
54
-154
-186
1
-85
-195
-143
-79
-198
-280
-69
-153
-246
54
67
-228
-167
72
-184
-130
182
-152
-231
61
-104
-218
24
48
-184
-185
-27
-256
-303
37
-95
-251
-80
-124
-207
-122
-24
-201
-389
-65
-36
-350
-82
-8
-349
-270
-98
-285
-349
-74
-236
-403
-38
-73
-307
-208
-153
-291
-299
-112
-43
-81
-26
6
-177
-91
156
-52
-61
347
267
-172
5
222
-263
-283
80
-266
-435
-204
-329
-461
-380
-310
-360
-263
-165
-470
-437
-395
-587
-30
1253
2751
3950
4291
3363
1942
1056
660
310
-61
-136
-220
-523
-504
-450
-517
-499
-446
-443
-589
-525
-412
-558
-595
-411
-617
-610
-148
-370
-700
-331
-213
-500
-419
-277
-413
-410
-182
-279
-442
-251
-119
-223
-193
-34
-222
-256
-40
-75
-146
-52
92
-48
-40
104
-132
-183
196
133
-146
261
179
-321
-16
139
-124
-143
1
-150
-404
-187
-176
-397
-152
7
-287
-396
-165
-175
-307
-183
-152
-259
-223
-119
-236
-289
-148
-252
-280
-85
-57
-249
-180
41
-152
-317
-144
-25
-195
-146
-46
-221
-101
31
-206
-252
16
-49
-297
-130
-52
-331
-208
13
-189
-252
-9
-150
-419
-178
-27
-191
-145
-56
-238
-198
5
-170
-336
-139
-104
-308
-267
-99
-253
-352
36
43
-195
59
102
-207
8
373
110
71
463
338
53
115
106
-163
-134
73
-247
-413
-146
-200
-382
-209
-152
-382
-287
-167
-354
-359
-311
-263
389
1858
3364
4243
4180
3050
1755
889
668
470
-88
-155
-178
-513
-471
-302
-532
-642
-464
-638
-770
-451
-354
-606
-560
-329
-505
-596
-370
-431
-638
-439
-329
-594
-415
-187
-445
-451
-292
-262
-340
-424
-169
-178
-190
27
-112
-166
25
-37
-207
3
119
-47
20
67
-84
16
261
77
-126
233
315
-61
-81
77
-38
-56
44
-175
-255
-75
-155
-361
-270
48
-86
-315
-97
-89
-305
-123
-91
-394
-123
-4
-342
-281
-114
-279
-317
-48
-93
-332
-133
-28
-269
-224
-54
-147
-314
-159
-57
-241
-129
-22
-232
-217
-17
-117
-308
-91
-1
-273
-222
-73
-341
-441
-11
57
-301
-141
-24
-311
-277
-88
-195
-276
-175
-197
-242
-189
-88
-201
-284
-68
-124
-302
-94
-33
-125
85
112
-235
-135
293
140
107
411
219
119
234
119
83
115
169
6
-256
-55
-129
-431
-210
-196
-442
-263
-33
-246
-397
-139
-270
-639
-132
1017
2322
3816
4616
3852
2543
1638
843
340
239
114
-231
-351
-147
-486
-678
-217
-374
-568
-316
-348
-489
-396
-274
-480
-579
-325
-313
-458
-258
-121
-400
-448
-162
-249
-338
-82
-94
-297
-211
-158
-258
-84
77
-91
-64
132
-91
-226
92
153
-102
0
301
135
-82
125
92
-31
281
341
95
112
231
28
-39
133
-87
-228
-70
12
-195
-262
-1
-70
-227
-160
-126
-250
-142
49
-173
-216
-53
-163
-192
4
-98
-288
-46
40
-105
-94
2
-121
-205
102
-3
-161
166
100
-248
-20
223
9
-61
111
113
-128
-45
86
-220
-126
106
23
-24
-43
9
9
-46
-65
-116
-86
76
-76
-237
48
95
-210
-92
120
-108
-64
126
-93
-159
7
-104
-190
29
191
4
52
336
162
-12
221
354
207
380
547
266
211
374
229
-77
-30
-65
-237
6
-24
-369
-240
102
-124
-402
-70
11
-235
-284
-321
151
1420
2984
4241
4496
3698
2409
1184
746
669
244
-14
22
-272
-621
-295
-189
-482
-309
-181
-423
-472
-260
-348
-459
-171
-233
-443
-323
-260
-425
-360
23
-104
-384
-210
-180
-366
-174
20
-306
-228
132
-118
-206
42
11
-42
9
142
196
72
302
192
-80
342
340
-73
148
430
118
144
440
216
49
202
146
-80
44
167
-180
-261
-10
-79
-140
46
-58
-210
9
41
-172
-175
19
-60
-262
-48
-15
-188
-4
22
-121
-92
-1
-52
-49
169
86
-150
-2
-19
-161
-53
132
52
-142
94
130
-145
-97
70
-76
-88
204
54
-229
3
82
-254
-99
94
-179
-133
66
-96
-262
47
104
-212
-89
107
-54
-102
171
147
-87
61
263
135
165
446
235
45
339
344
345
467
378
286
312
409
161
-6
197
100
-125
-24
-13
-212
-152
13
-171
-174
77
-288
-325
146
-134
-213
910
2468
3764
4548
4122
2613
1590
1154
683
346
162
25
-244
-364
-148
-192
-414
-210
-151
-450
-333
-151
-269
-312
-207
-248
-362
-155
-115
-302
-235
-189
-328
-368
-218
-250
-482
-153
51
-310
-236
-5
-77
21
210
-7
-167
63
204
29
79
285
51
33
356
271
57
155
257
130
204
394
263
78
221
231
-55
39
94
-174
-54
89
-139
-171
-154
-215
-124
-52
25
-227
-273
115
-146
-237
96
-77
-268
-17
19
-199
-61
77
-143
-283
140
140
-257
109
289
-93
-3
202
-11
-69
33
-18
-86
70
89
-183
17
190
-198
-159
260
78
-167
111
139
-119
-152
-8
-142
-235
50
-64
-215
70
156
-75
-112
155
39
6
383
313
40
215
325
108
258
484
265
232
403
87
-94
292
316
-105
-123
75
-129
-258
-103
-173
-284
16
127
-187
-123
13
-371
-384
551
1602
2894
4490
4574
3134
1984
1301
645
355
362
50
-296
-163
-53
-361
-421
-221
-417
-530
-242
-183
-466
-462
-212
-323
-291
-124
-405
-450
-148
-191
-333
-78
-45
-354
-193
-32
-278
-162
145
-62
-228
-51
10
12
150
269
98
-57
242
357
25
183
370
137
195
374
235
185
418
345
107
274
366
13
88
406
127
-125
57
94
-27
181
230
-117
-28
246
-73
-185
256
238
-102
25
265
-12
-26
246
-9
-194
202
99
-218
244
332
-110
26
346
35
-40
322
212
19
256
217
-78
170
243
-12
45
176
67
-55
106
139
-88
3
305
35
-91
201
15
-110
168
145
-101
-3
191
-16
-124
103
24
-74
154
338
110
93
416
163
127
419
380
235
359
640
392
320
496
285
114
166
113
29
9
-73
-139
-44
71
-154
-108
158
-10
-158
-79
-182
-339
463
1941
3227
4411
4710
3506
2042
1317
891
609
437
303
-51
-285
-11
-107
-331
-123
-97
-292
-174
-28
-200
-324
-111
-117
-296
-65
10
-256
-150
104
-195
-317
63
-97
-330
20
32
-253
-120
26
-126
-124
101
56
-114
116
295
25
13
247
156
90
284
285
146
375
476
198
264
492
286
169
318
124
-43
182
170
-177
-76
140
-90
-71
158
17
-181
41
84
-243
-34
217
-110
-174
59
-65
-214
59
104
-141
-178
-18
126
-188
-129
171
-83
-36
53
-164
-40
147
-31
-175
48
151
-74
63
169
-286
-219
315
79
-233
-23
37
-74
-25
101
-73
-91
-3
-251
-58
209
-22
-147
20
-68
-354
-89
141
-74
-264
-98
22
-174
-23
174
-11
-27
206
14
-44
267
254
57
241
355
72
177
250
1
-31
49
-161
-344
-150
-98
-259
-294
-179
-286
-464
-144
-34
-463
-594
-281
555
1975
3590
4484
4105
3164
1943
864
685
645
-19
-296
-76
-352
-564
-291
-361
-671
-490
-299
-474
-479
-390
-436
-494
-338
-396
-589
-421
-306
-419
-371
-225
-414
-469
-255
-238
-403
-348
-184
-402
-439
-44
-13
-115
-44
-227
-302
117
226
-156
-65
179
-29
-13
293
235
-19
97
305
158
131
331
11
-156
260
253
-106
-151
43
-171
-282
25
-143
-284
-37
-82
-301
-197
37
-198
-255
58
-138
-295
-45
-89
-271
-83
14
-217
-148
0
-105
-148
0
-28
-271
-104
69
-182
-113
169
-36
-199
-21
30
-157
-159
83
-50
-166
33
-13
-185
-122
5
-87
-44
132
-126
-320
-6
-2
-212
-8
65
-121
-42
1
-78
-92
-165
-88
-58
60
81
-352
-133
237
-54
-64
143
98
61
194
150
37
255
282
200
346
323
149
170
375
178
-214
112
215
-249
-221
-10
-205
-373
-135
-2
-202
-257
-26
-87
-301
-273
112
1206
2871
4317
4528
3628
2499
1198
647
853
300
-192
-11
-59
-380
-332
-211
-389
-368
-217
-348
-467
-276
-265
-450
-324
-189
-375
-407
-162
-288
-371
-98
-277
-497
-246
-44
-270
-336
-76
-149
-239
-70
-40
-159
-112
-20
-14
-12
23
15
-41
135
271
31
107
232
-35
84
383
192
-20
200
278
58
-42
106
-36
-205
21
-91
-318
-141
-125
-277
-85
-12
-256
-196
-22
-212
-272
-129
-252
-314
-168
-18
-192
-381
-87
-75
-308
-67
79
-175
-142
12
-157
-224
5
-21
-281
-51
84
-280
-167
8
-209
-119
-10
-194
-148
69
8
-216
-77
45
-228
-190
41
-97
-201
-89
-60
-184
-178
-15
-196
-319
39
-13
-279
-51
48
-205
-154
18
-235
-151
48
-194
-68
103
-72
-84
79
223
91
42
415
291
-104
188
190
-153
-8
-33
-321
-224
0
-181
-392
-107
-54
-396
-286
-59
-228
-397
-379
-42
864
2173
3744
4580
4031
2859
1541
831
769
311
-145
14
-4
-365
-389
-241
-447
-479
-139
-271
-493
-141
-104
-436
-303
-138
-283
-301
-91
-184
-357
-200
-230
-316
-62
-54
-253
-123
64
-73
-151
-43
4
21
48
144
36
-27
127
120
42
207
233
39
172
337
186
164
360
275
122
301
388
116
99
350
15
-138
163
-20
-247
-180
-173
-285
-266
-49
-107
-254
-108
-193
-388
-257
-165
-347
-295
-86
-245
-329
-180
-235
-419
-223
-5
-267
-243
-117
-337
-250
-23
-132
-206
-24
0
-237
-178
-47
-232
-227
-38
-93
-258
-107
-39
-255
-96
66
-231
-246
-88
-249
-284
-74
-89
-326
-159
-63
-346
-201
104
-196
-410
-104
-35
-209
-150
42
-111
-196
149
61
-193
18
215
177
206
384
105
-85
315
188
-207
-20
15
-374
-291
-98
-397
-426
-146
-172
-418
-349
-137
-293
-378
-316
-386
385
2108
3490
4296
4147
2960
1642
899
728
406
35
-111
-316
-457
-231
-320
-601
-292
-206
-525
-426
-206
-376
-479
-282
-254
-385
-385
-301
-411
-384
-154
-353
-464
-194
-227
-515
-376
-321
-495
-274
-57
-237
-329
-152
-166
-327
-109
168
-139
-228
70
44
-110
10
95
-76
1
149
-113
-45
209
50
-75
100
129
-345
-255
69
-242
-368
-224
-246
-340
-253
-128
-394
-429
-102
-346
-456
-93
-261
-482
-183
-144
-364
-285
-147
-334
-400
-111
-100
-314
-221
-24
-204
-243
-28
-230
-326
-30
-194
-451
-113
8
-301
-187
54
-256
-458
-205
-148
-357
-249
-37
-296
-310
-23
-247
-342
-135
-277
-315
-97
-173
-428
-270
0
-250
-448
-80
-109
-454
-237
-101
-272
-277
-108
-11
-94
4
44
-212
51
299
46
207
360
0
-42
217
41
-211
-128
-148
-367
-305
-77
-230
-387
-207
-279
-563
-252
54
-308
-473
-335
93
1360
2957
4102
4350
3554
2291
1126
667
666
193
-194
-105
-261
-496
-377
-343
-457
-397
-309
-477
-479
-169
-264
-481
-309
-215
-487
-481
-133
-333
-524
-153
-187
-400
-178
-254
-401
-223
-104
-169
-217
-23
-30
-177
2
145
-54
-34
216
67
-92
248
302
124
345
320
60
93
395
424
208
382
392
132
219
240
-109
-85
268
13
-217
52
-14
-245
-152
-53
-190
-95
201
-75
-318
14
-26
-333
-129
20
-226
-164
35
-134
-258
-9
-20
-283
-117
40
-156
-117
83
-123
-158
79
-61
-219
-21
89
-139
-197
81
-35
-231
-6
-8
-281
-171
40
-264
-201
57
-237
-260
107
79
-306
-163
24
-236
-169
51
-85
-302
-107
-59
-314
-152
15
-243
-330
-6
-89
-245
57
67
-81
82
154
1
-22
-27
168
277
377
436
72
202
319
-105
-97
117
-170
-385
-154
-199
-385
-240
-168
-306
-270
-2
-197
-352
-247
-375
45
1396
2910
4022
4493
3789
2379
1244
775
483
168
61
-86
-407
-431
-196
-459
-598
-230
-399
-728
-294
-118
-494
-444
-255
-437
-430
-204
-391
-513
-359
-316
-406
-441
-240
-284
-459
-298
-206
-353
-223
-46
-346
-403
-47
-76
-242
-99
4
-102
-48
95
-27
-20
241
115
-70
165
182
14
134
213
-14
-22
217
-18
-170
119
-48
-399
-135
26
-251
-234
-139
-317
-354
-61
-97
-364
-206
-68
-327
-380
-113
-215
-300
-114
-85
-283
-459
-236
-150
-198
-1
-114
-218
-40
-92
-301
-83
105
-238
-229
94
-96
-244
-3
-40
-193
-79
-13
-250
-216
77
-165
-277
-46
-71
-152
-88
-71
-202
-150
52
-133
-274
-17
-34
-186
-61
33
-160
-250
-86
-38
-190
-31
90
-261
-142
96
-159
-61
145
-2
43
229
145
-10
151
252
145
235
455
359
55
196
320
44
35
135
-172
-353
-21
-82
-334
-62
-24
-279
-104
0
-353
-362
-303
-299
574
2140
3667
4520
4137
3043
1807
841
768
540
-104
-74
-51
-386
-349
-220
-460
-551
-400
-352
-439
-429
-272
-404
-387
-209
-384
-441
-302
-298
-368
-289
-229
-390
-307
-183
-334
-329
-164
-191
-252
-105
-128
-370
-153
-25
-305
-100
185
40
-96
146
255
-83
33
355
89
43
315
200
100
224
247
17
26
197
-90
-151
87
-81
-271
-138
-117
-213
-142
-76
-270
-264
19
-73
-264
-138
-113
-265
-233
-69
-165
-266
1
-129
-399
9
-23
-485
-111
173
-146
-216
-7
-104
-274
10
47
-225
-90
-80
-220
-100
17
-70
-187
-176
-158
-168
-52
33
-147
-180
-14
-178
-317
-9
-82
-293
-145
-64
-221
-288
23
-102
-430
-155
-15
-244
-167
9
-267
-320
20
-82
-273
-82
60
-90
-54
128
-17
-59
164
29
-88
283
275
98
387
390
34
49
218
-2
-259
-150
-77
-264
-185
-22
-289
-324
-131
-240
-326
-140
-154
-754
-442
915
2105
3652
4785
4122
2711
1815
1064
484
287
127
-150
-281
-192
-357
-528
-317
-338
-535
-346
-262
-431
-387
-194
-375
-564
-196
-162
-587
-323
-111
-498
-320
-49
-264
-293
-124
-173
-339
-195
-9
-172
-189
23
-30
-139
10
24
-96
87
306
53
-80
232
168
29
222
247
95
93
307
253
132
310
198
20
128
152
-58
1
126
-98
-86
36
-103
-281
-68
116
-140
-125
82
-118
-103
168
-101
-188
120
77
-143
-9
208
-106
-145
100
-38
-97
79
194
29
52
142
-65
-35
82
-70
-118
101
120
-120
-42
103
-158
-182
112
14
-219
-60
78
-92
-175
-63
-138
-243
-11
-152
-365
9
42
-203
-107
-46
-126
-161
-89
-197
-247
80
225
24
38
131
-32
39
366
224
-5
395
350
-5
194
166
-106
-143
9
-91
-338
-271
-248
-305
-276
-210
-298
-366
-113
-163
-513
-386
50
900
2607
4221
4450
3377
2187
1290
617
452
359
-117
-304
-199
-471
-522
-330
-417
-544
-436
-389
-570
-412
-276
-587
-549
-133
-296
-598
-248
-170
-465
-362
-208
-367
-385
-205
-244
-267
-117
-153
-344
-177
29
-161
-244
-77
-88
-230
35
165
-178
-63
196
-3
-19
148
29
7
150
113
-7
127
200
-54
-111
32
-110
-319
-127
37
-141
-170
-70
-192
-357
-164
-67
-433
-306
-18
-256
-176
50
-275
-373
-86
-158
-406
-270
8
-215
-279
-50
-131
-205
-44
-67
-248
-91
5
-251
-223
-34
-238
-295
-37
-78
-213
-101
-141
-310
-194
-85
-220
-360
-160
-101
-486
-258
-51
-375
-210
-58
-366
-346
-47
-242
-412
-167
-166
-390
-320
-102
-199
-318
-169
-107
-210
-84
12
-161
-98
19
-101
6
213
211
190
332
249
-25
93
208
-120
-327
-37
-163
-442
-96
-40
-364
-303
-117
-263
-356
-140
-240
-603
-262
651
1817
3380
4552
4110
2891
2044
1027
346
425
287
-350
-343
-117
-359
-410
-306
-426
-554
-360
-370
-605
-587
-404
-495
-567
-420
-590
-577
-269
-298
-522
-506
-324
-487
-539
-275
-363
-480
-323
-263
-416
-441
-166
-205
-346
-76
-169
-342
14
124
-181
-153
78
-74
-122
190
100
-122
90
130
-60
14
73
-1
-79
10
11
-276
-100
-17
-328
-244
-57
-205
-315
-79
-113
-416
-277
-73
-267
-252
-50
-199
-299
-91
-121
-478
-331
-32
-217
-196
-42
-243
-292
-67
-89
-285
-140
-51
-311
-175
43
-181
-336
-80
35
-218
-179
-43
-262
-248
-21
-190
-283
-11
-105
-422
-229
-87
-276
-174
-25
-231
-295
-58
-129
-340
-94
-32
-317
-155
63
-146
-314
-140
-137
-295
-49
35
-149
18
95
-79
-60
182
226
0
190
420
60
-12
287
135
-63
70
-139
-340
-39
-24
-405
-379
9
-200
-427
-85
-196
-451
-241
-288
-366
543
2098
3350
4304
4308
2957
1662
973
707
450
85
-50
-373
-499
-267
-390
-539
-403
-432
-614
-503
-260
-506
-607
-412
-531
-585
-359
-327
-583
-498
-261
-417
-581
-345
-264
-428
-311
-200
-366
-354
-162
-244
-319
-107
-160
-378
-146
14
-215
-251
-34
-110
-112
92
-102
-170
155
186
-152
-20
147
-175
-148
174
36
-257
-119
2
-333
-364
-9
-242
-318
-74
-190
-343
-198
-130
-427
-297
-45
-267
-396
-200
-234
-385
-246
-93
-203
-328
-125
-181
-309
-13
-54
-361
-239
-32
-207
-200
-9
-144
-205
-116
-111
-245
-251
-121
-257
-181
-23
-287
-375
-81
-48
-380
-319
-52
-194
-308
-122
-152
-386
-213
-42
-324
-337
-56
-191
-276
-78
-135
-352
-250
-194
-379
-185
-75
-303
-265
-33
-147
-322
-7
12
-288
-42
72
-3
175
269
148
115
297
193
-24
28
52
-154
-212
-58
-208
-397
-214
-149
-390
-224
-74
-437
-336
-70
-413
-484
463
1761
3025
4361
4522
3121
1873
1187
635
502
377
-103
-390
-245
-190
-432
-506
-338
-417
-446
-344
-413
-465
-426
-356
-409
-328
-132
-315
-510
-264
-243
-393
-210
-124
-317
-297
-109
-262
-312
-125
-122
-168
23
141
-90
-78
166
-4
-124
181
139
-85
155
241
-18
-1
260
241
129
330
302
90
233
299
37
99
292
14
-180
159
136
-205
61
133
-200
-107
122
-62
-216
38
-11
-206
23
102
-174
-176
66
-79
-77
196
105
-166
-30
168
-44
19
126
-14
-51
107
156
-85
-84
35
-55
43
253
37
-119
144
135
-127
-32
76
-125
-33
172
-9
-132
36
3
-309
-110
218
-77
-206
36
-57
-126
110
66
-116
-78
13
-97
-121
135
76
-79
159
165
-17
218
328
125
295
520
309
200
347
258
-56
-10
195
-60
-222
-48
-206
-283
-30
-185
-377
-107
8
-238
-139
-142
-394
145
1474
3058
4252
4496
3673
2230
1209
894
628
148
-5
-15
-381
-372
-238
-446
-312
-155
-489
-565
-174
-137
-349
-340
-240
-376
-388
-147
-234
-359
-176
-209
-377
-135
-35
-253
-236
-59
-112
-251
-24
14
-278
-120
55
-18
19
133
84
-64
48
101
21
186
259
39
61
225
76
70
351
219
16
288
244
6
83
133
-15
-140
8
29
-204
-143
48
-121
-305
-46
40
-347
-114
128
-130
-13
-4
-143
-85
57
19
-258
-48
97
-95
24
96
-169
-112
61
-147
-104
7
10
-18
-52
-11
-121
-111
15
-69
-118
-74
-92
-126
-87
-37
-259
-343
-48
-194
-386
17
0
-338
-161
2
-248
-345
-85
-63
-210
-90
27
-129
-68
111
-55
-68
196
254
38
201
382
13
70
270
-41
-199
-125
-173
-345
-224
-154
-395
-247
-214
-408
-322
-198
-260
-301
-330
-466
7
1364
2885
4018
4324
3461
2076
1043
682
494
84
-104
-178
-400
-388
-274
-433
-579
-390
-276
-462
-401
-273
-474
-595
-293
-260
-487
-231
-191
-504
-420
-232
-354
-353
-103
-164
-294
-99
-179
-376
-104
97
-192
-239
78
-38
-183
166
155
-201
49
285
26
9
241
101
-39
245
119
-67
277
215
-13
127
183
44
-89
-26
-5
-208
-157
-80
-359
-367
-132
-225
-320
-25
-20
-370
-252
-20
-216
-302
-78
-178
-354
-130
-7
-257
-337
51
29
-191
79
-2
-209
48
12
-265
-169
-38
-166
-195
-149
-224
-166
31
-85
-356
-143
-4
-215
-201
-73
-159
-316
-177
-113
-366
-228
-50
-285
-239
-39
-195
-403
-174
-33
-316
-222
37
-272
-381
-12
-112
-239
20
45
-179
-150
141
72
-8
319
311
64
88
127
-22
-44
92
-159
-308
-106
-223
-351
-190
-260
-447
-377
-221
-295
-415
-130
-349
-583
700
2204
3278
4391
4260
2743
1678
1080
523
323
105
-207
-447
-363
-351
-601
-542
-358
-423
-561
-385
-318
-591
-531
-313
-397
-435
-339
-378
-454
-257
-298
-462
-271
-190
-290
-357
-228
-217
-293
-115
-113
-281
-100
0
-236
-167
70
-8
-179
-51
107
-18
47
49
-113
12
246
197
-19
151
280
12
-3
267
68
-140
83
24
-180
-101
-64
-233
-258
-74
-175
-278
-19
-50
-282
-133
-69
-351
-237
4
-282
-325
-5
-201
-332
-94
-33
-195
-199
-42
-167
-257
-50
-51
-255
0
72
-209
-102
-46
-174
-157
24
-31
-278
-109
-66
-303
-107
76
-177
-295
-23
-28
-436
-293
-16
-183
-121
38
-213
-262
-34
-186
-293
-166
-84
-313
-245
91
-167
-263
60
16
-163
79
130
-131
-78
162
151
82
361
372
91
252
220
-80
53
166
-171
-274
-49
-205
-339
-169
-112
-264
-261
-43
-206
-287
-197
-434
-122
1287
2752
3833
4598
3938
2382
1351
897
621
201
6
-86
-361
-380
-210
-414
-532
-286
-374
-517
-281
-314
-569
-359
-209
-438
-421
-207
-390
-464
-172
-224
-447
-241
-3
-266
-350
-56
-211
-409
-67
-58
-305
-77
46
-135
-82
100
23
-35
97
119
4
79
179
-28
-66
250
265
9
187
340
58
82
289
-30
-171
112
-51
-180
139
64
-279
-163
39
-88
-169
-13
-82
-277
-138
-19
-225
-168
41
-217
-336
-38
-78
-279
-106
-53
-142
-70
50
-54
-188
4
-7
-153
22
43
-166
-56
74
-113
-138
94
-32
-287
-38
87
-96
-71
-14
-95
-149
-46
-38
-175
-109
-104
-246
-147
-14
-138
-177
55
-26
-239
-16
-1
-293
-235
105
-4
-135
154
57
-46
170
43
-126
96
306
178
58
340
341
103
270
282
-17
-33
97
-222
-447
-82
-69
-370
-191
-143
-408
-271
-41
-186
-309
-294
-481
-151
1292
2789
3852
4525
3857
2285
1247
873
624
196
-72
-174
-395
-432
-215
-444
-629
-277
-364
-588
-341
-218
-408
-385
-201
-401
-538
-252
-235
-415
-240
-182
-457
-376
-96
-282
-383
-84
-127
-358
-98
77
-281
-183
70
-255
-284
160
220
-60
78
264
31
44
258
-9
-66
273
230
32
159
275
61
18
162
-15
-75
187
33
-276
-157
12
-154
-176
22
-149
-220
-7
-122
-250
-71
15
-221
-276
-61
-155
-211
-1
-140
-302
89
167
-179
-87
134
-18
-152
2
32
-213
-61
144
-130
-116
71
-78
-247
13
109
-293
-146
186
-127
-146
97
-89
-186
-80
-51
-214
-245
80
-94
-274
35
-81
-175
-33
-118
-219
-160
-73
-217
-269
-39
-123
-181
104
172
-58
-8
187
69
140
327
183
111
283
149
-76
-43
-82
-305
-324
-65
-116
-304
-238
-169
-261
-263
-159
-363
-390
-178
-482
-528
529
1880
3207
4482
4329
2810
1645
943
439
286
146
-100
-369
-419
-341
-484
-517
-351
-433
-602
-487
-438
-555
-390
-358
-583
-428
-296
-504
-510
-338
-460
-548
-234
-123
-411
-323
-83
-345
-342
-31
-122
-304
-172
15
-111
-125
53
-164
-196
101
46
-91
17
201
75
51
243
-14
-109
227
157
-82
71
137
-44
-65
-93
-213
-103
-29
-231
-330
-134
-120
-385
-238
6
-210
-339
-168
-207
-380
-158
-100
-391
-155
-8
-397
-370
-9
-105
-258
-123
-135
-258
-195
2
-153
-322
-226
-237
-200
-59
-17
-246
-212
-8
-227
-324
-103
-127
-324
-239
-154
-305
-294
-243
-367
-329
-98
-146
-395
-258
-127
-397
-309
-73
-301
-342
-75
-142
-391
-167
37
-246
-286
-15
-74
-127
202
200
-146
110
419
27
-154
103
-21
-189
-188
-363
-392
-302
-297
-392
-352
-257
-420
-437
-234
-233
-485
-616
-347
303
1546
3161
4139
4021
3078
1741
767
553
444
-107
-468
-284
-357
-604
-524
-586
-688
-459
-468
-587
-475
-460
-528
-573
-435
-373
-571
-456
-320
-590
-525
-255
-399
-533
-340
-289
-431
-310
-205
-478
-457
-61
-285
-464
-53
-70
-357
-121
109
-137
-138
58
-64
-231
-184
-87
-253
-158
45
-199
-127
48
-125
-195
-34
-147
-312
-234
-271
-413
-358
-181
-385
-524
-219
-144
-436
-347
-160
-378
-453
-310
-263
-290
-196
-199
-455
-369
-100
-317
-387
-13
-166
-344
-52
-123
-287
-40
-12
-157
-192
-130
-124
-356
-118
-11
-230
-51
-53
-288
-227
-53
-171
-342
-146
-84
-368
-219
-99
-428
-255
32
-212
-329
-88
-116
-313
-27
-15
-387
-172
37
-201
-291
-17
-8
-355
-34
199
-192
-101
157
119
26
265
468
179
195
268
-45
7
184
-136
-340
-119
-110
-407
-288
-85
-279
-301
-146
-226
-300
-142
-341
-505
468
2000
3304
4442
4400
3077
1908
1161
607
315
276
57
-391
-439
-217
-414
-583
-309
-300
-538
-450
-267
-407
-497
-284
-344
-601
-412
-228
-398
-364
-206
-384
-424
-142
-179
-403
-263
-123
-424
-252
66
-243
-164
62
-207
-306
15
35
-247
-130
37
-70
-31
54
-112
-135
181
218
-12
80
198
108
103
240
56
-172
58
0
-293
-202
-41
-223
-273
-57
-133
-292
-158
-175
-378
-151
16
-254
-352
-106
-129
-320
-143
-81
-281
-178
-84
-223
-171
-33
-125
-229
2
9
-207
-25
82
-125
-147
1
-102
-181
101
72
-252
-73
104
-250
-221
125
-129
-266
92
-29
-266
3
3
-264
-105
54
-132
-174
9
-38
-324
-184
86
-197
-225
135
-91
-307
29
89
-52
111
272
57
-54
238
242
119
404
489
214
235
363
46
-116
145
-18
-297
-79
-42
-328
-287
-103
-285
-296
-14
-189
-352
-66
-324
-420
871
2392
3585
4475
4104
2754
1528
790
577
380
53
-127
-305
-352
-247
-423
-555
-347
-356
-612
-438
-226
-538
-553
-261
-394
-535
-354
-268
-500
-394
-154
-437
-359
-75
-313
-402
-171
-182
-345
-206
-41
-271
-251
58
-62
-234
-33
74
-53
20
54
-80
7
230
156
9
197
148
50
258
320
88
63
279
36
-89
162
26
-201
-72
36
-243
-298
29
-93
-271
-17
-44
-297
-114
36
-216
-259
-6
-99
-295
-188
-118
-153
-81
-2
-185
-243
-23
-81
-266
-79
-45
-272
-116
30
-179
-173
80
-80
-272
-34
-94
-284
-43
29
-231
-199
-40
-98
-255
-97
40
-293
-202
69
-171
-131
27
-260
-272
46
-9
-300
-148
48
-200
-169
70
-120
-238
81
80
-157
-20
62
-73
3
274
191
112
388
308
87
208
198
3
-52
-24
-105
-287
-121
-27
-355
-235
9
-306
-393
-43
-159
-395
-275
-334
91
1527
3126
4285
4415
3353
2031
1088
753
583
87
-101
-79
-388
-441
-207
-382
-568
-468
-399
-435
-434
-322
-397
-469
-228
-256
-454
-228
-222
-479
-343
-187
-330
-315
-115
-202
-317
-157
-82
-233
-110
23
-302
-228
82
-34
-55
157
74
-152
38
227
29
33
191
62
54
298
291
-5
121
347
76
-1
190
70
-103
-27
-27
-258
-157
30
-247
-279
-94
-230
-251
15
-72
-318
-164
-7
-143
-214
-29
-69
-274
-109
24
-85
-96
-1
-53
-122
83
-5
-200
71
85
-146
-68
83
-41
-194
107
103
-146
148
193
-198
-125
111
-130
-186
48
-68
-148
39
-29
-223
-110
59
-129
-212
70
-2
-212
-89
-2
-147
-98
96
-182
-192
217
31
-151
163
227
-30
152
424
190
236
458
202
7
179
101
-104
-84
-109
-264
-367
-105
-102
-429
-242
-100
-351
-313
-139
-418
-663
-207
471
1462
3282
4511
4117
3097
1955
897
582
611
168
-356
-227
-153
-488
-449
-317
-535
-516
-248
-380
-625
-384
-346
-597
-303
-133
-423
-432
-316
-369
-413
-388
-255
-228
-269
-297
-421
-301
-89
-232
-333
-92
-66
-290
-179
27
-107
-157
64
-39
-127
45
-9
-20
90
176
132
-46
112
177
-37
125
180
-108
-72
82
-126
-232
65
19
-312
-206
-65
-182
-222
-68
-73
-283
-158
-187
-377
-35
47
-275
-194
-66
-177
-220
-34
-50
-292
-41
114
-193
-117
49
-197
-188
32
-41
-213
-47
125
-155
-109
104
-169
-238
-25
-131
-293
-125
-94
-211
-91
-31
-286
-304
-47
-148
-202
-20
2
-205
-217
-4
-172
-343
-124
-89
-326
-186
-25
-363
-238
130
-121
-236
48
70
-8
100
20
-61
100
245
151
158
341
158
-54
159
241
-72
-139
-71
-356
-400
-177
-218
-341
-201
-124
-310
-328
-225
-309
-531
-209
585
1727
3323
4414
3969
2831
1975
855
354
455
25
-405
-326
-201
-484
-598
-416
-469
-552
-439
-580
-765
-474
-507
-796
-590
-406
-683
-826
-369
-299
-613
-376
-307
-529
-448
-310
-442
-529
-222
-253
-430
-169
-173
-361
-205
-56
-211
-228
42
32
-132
47
137
-78
-52
167
34
-90
209
174
-46
72
110
4
10
72
-164
-277
-2
-80
-319
-196
-64
-227
-208
-128
-303
-346
-154
-40
-267
-197
-63
-293
-282
-139
-270
-306
-56
-130
-351
-185
-77
-289
-286
-29
-103
-213
-37
-105
-273
-69
6
-253
-190
-43
-160
-164
-105
-162
-291
-151
-67
-306
-255
-105
-133
-273
-125
-16
-263
-109
-37
-302
-194
-78
-299
-317
-106
-159
-301
-128
-74
-293
-219
-5
-226
-259
-29
-98
-197
-80
142
26
-48
110
17
15
277
305
116
226
240
-82
-36
101
-153
-287
-120
-166
-356
-259
-141
-345
-342
-107
-312
-413
-123
-366
-626
278
1552
2703
4148
4655
3416
2108
1314
567
296
284
-23
-375
-321
-209
-464
-623
-357
-357
-617
-389
-333
-654
-457
-257
-453
-426
-237
-374
-486
-371
-287
-342
-362
-249
-376
-413
-213
-267
-448
-331
-139
-300
-270
-50
-231
-223
-13
-175
-157
112
97
-68
10
235
-21
-149
251
290
26
145
259
10
35
166
14
-12
123
-51
-212
12
-89
-260
-90
-42
-170
-189
-21
-108
-325
-129
9
-250
-179
20
-222
-265
-28
-145
-450
-258
51
-168
-227
14
-142
-288
-48
-176
-420
-155
-36
-248
-177
-46
-266
-276
-24
-134
-256
-66
-64
-221
-209
-47
-120
-285
-48
-60
-300
-152
-44
-229
-302
-161
-181
-240
-79
-134
-343
-166
-79
-296
-187
41
-141
-247
-33
-135
-263
58
157
-114
-48
143
-36
-2
336
276
40
238
418
81
64
308
32
-134
6
-100
-329
-202
-82
-321
-284
-109
-312
-426
-146
-116
-377
-428
-90
570
1798
3629
4508
3986
2953
1602
741
738
630
59
-220
-110
-359
-533
-320
-371
-525
-391
-301
-409
-390
-307
-430
-516
-313
-279
-455
-279
-162
-400
-401
-245
-327
-344
-153
-161
-372
-139
55
-261
-249
-10
-150
-223
68
12
-281
5
231
-29
43
245
54
-21
167
187
5
124
326
35
31
298
12
-89
199
42
-182
-10
1
-301
-274
-18
-209
-340
-79
-207
-425
-183
-108
-320
-263
-98
-220
-287
-153
-203
-271
-102
-116
-341
-267
-45
-166
-258
6
-87
-364
-56
17
-299
-205
-22
-115
-297
-163
-103
-359
-155
17
-254
-255
-66
-194
-320
-100
-136
-373
-220
-55
-249
-345
-55
-108
-338
-118
-94
-328
-216
-103
-323
-292
-86
-261
-349
-169
-101
-144
-109
39
-112
-118
69
-108
-84
208
192
-13
240
282
-308
-70
367
-103
-335
-39
-166
-471
-280
-211
-406
-376
-342
-426
-367
-236
-377
-569
-540
-189
815
2302
3813
4390
3498
2351
1395
524
354
260
-317
-483
-356
-586
-617
-448
-488
-788
-659
-405
-700
-597
-387
-561
-613
-416
-422
-675
-492
-355
-697
-612
-388
-534
-528
-318
-316
-453
-290
-185
-364
-356
-204
-267
-286
-133
-164
-239
-77
38
-84
-144
-5
2
-91
75
59
-100
109
107
-131
36
192
-65
-203
-14
-129
-383
-174
-66
-341
-285
-130
-370
-389
-132
-256
-483
-294
-239
-389
-268
-94
-373
-565
-112
-64
-440
-271
-165
-395
-300
-201
-290
-293
-179
-196
-310
-200
-81
-294
-412
-199
-161
-266
-162
-201
-470
-301
-141
-424
-469
-206
-319
-533
-217
-192
-434
-286
-201
-429
-467
-202
-294
-397
-242
-345
-460
-312
-253
-412
-425
-156
-187
-442
-176
-40
-403
-270
7
-152
-105
68
47
24
41
-25
-247
-238
-217
-528
-500
-322
-621
-556
-237
-450
-638
-489
-370
-594
-657
-334
-639
-801
328
1695
2829
4016
4101
2657
1558
1016
376
41
12
-283
-732
-617
-423
-710
-892
-689
-708
-833
-580
-597
-861
-704
-573
-772
-735
-546
-700
-749
-454
-472
-787
-593
-394
-639
-538
-372
-543
-582
-456
-331
-340
-403
-365
-408
-409
-224
-240
-322
-144
-87
-283
-310
-44
-82
-153
84
-66
-227
26
114
-92
-40
93
-156
-296
-114
-235
-331
-128
-240
-482
-323
-134
-359
-296
-142
-314
-342
-161
-140
-385
-237
-80
-395
-331
16
-234
-454
-162
-230
-450
-229
-89
-268
-282
-193
-257
-247
-59
-198
-435
-173
-80
-330
-272
-55
-97
-287
-312
-242
-253
-157
-82
-258
-247
-18
-218
-394
-155
-159
-273
-166
-142
-282
-251
-50
-224
-334
12
-64
-381
-211
-69
-275
-209
-31
-141
-171
43
112
-153
-155
98
69
87
293
206
54
276
232
-151
-54
98
-193
-345
-273
-344
-449
-183
-65
-423
-308
-151
-424
-307
-101
-392
-616
177
1535
2686
3995
4488
3354
2101
1374
662
327
292
-18
-410
-354
-237
-513
-572
-321
-338
-499
-414
-471
-555
-336
-198
-355
-395
-257
-402
-433
-228
-268
-421
-395
-271
-347
-418
-237
-213
-430
-204
-62
-347
-116
35
-184
-143
64
74
-71
45
171
-13
61
269
41
-61
199
254
140
293
280
69
221
234
-54
-38
205
93
-178
-77
-114
-316
-131
-47
-258
-297
-168
-187
-285
-154
-130
-380
-200
-2
-358
-388
-36
-229
-547
-158
-26
-376
-240
-77
-165
-256
-167
-100
-189
-33
1
-249
-223
81
-101
-314
-62
-76
-169
10
-54
-284
-118
25
-216
-302
-32
-51
-310
-150
42
-220
-222
6
-252
-245
-4
-99
-248
-191
-77
-210
-188
-11
-149
-254
29
60
-81
146
179
-62
30
256
101
111
389
399
146
158
278
-21
-20
221
33
-217
-66
-87
-359
-182
-48
-289
-236
-68
-295
-354
-68
-345
-457
653
1990
3185
4376
4411
3057
1842
1194
680
380
246
-15
-395
-313
-88
-347
-471
-238
-302
-505
-353
-276
-462
-353
-211
-386
-369
-204
-354
-434
-141
-158
-460
-283
-12
-261
-324
-41
-132
-303
-123
-69
-289
-98
73
-162
-76
147
67
-79
44
108
-11
129
278
94
59
319
259
46
225
316
66
128
267
46
-57
145
15
-163
41
-16
-248
-149
70
-124
-332
-20
-4
-253
-60
15
-190
-131
47
-147
-229
37
37
-170
-45
52
-164
-38
109
-134
-131
106
39
-98
50
85
-151
-27
168
-62
-112
103
-18
-215
27
117
-149
-97
47
-165
-84
135
-126
-292
-59
61
-128
-77
62
-162
-154
118
-54
-339
-92
79
-160
-70
210
-15
-44
225
14
-104
174
264
159
274
440
243
83
299
168
-46
134
1
-274
-122
60
-155
-314
-159
-178
-380
-236
-24
-203
-181
-172
-417
223
1733
3205
4295
4411
3313
1888
1081
830
471
90
40
-178
-452
-245
-112
-350
-376
-169
-344
-471
-284
-325
-345
-206
-243
-434
-353
-123
-323
-349
-73
-151
-237
-124
-79
-217
-224
-23
-77
-178
17
-8
-183
11
127
-97
41
262
102
50
96
147
148
268
390
127
69
349
141
-54
318
224
-22
265
246
-64
3
87
-136
-183
-38
-169
-262
-98
-34
-244
-250
-28
-132
-207
-65
-127
-234
-189
-76
-92
-74
41
-199
-180
76
-100
-188
-10
-60
-292
-208
-59
-208
-347
-137
-73
-337
-187
-96
-361
-211
-14
-262
-346
-100
-151
-404
-201
40
-268
-321
-106
-223
-312
-259
-230
-285
-247
-122
-290
-417
-106
-209
-429
-98
-75
-385
-213
76
-173
-144
76
-123
-240
-26
145
34
129
356
137
56
269
12
-72
116
-68
-308
-190
-42
-331
-285
53
-231
-438
-109
-151
-441
-264
-209
-361
290
1698
2989
4016
4407
3346
1912
1160
757
385
169
63
-234
-344
-193
-300
-493
-388
-424
-531
-332
-225
-366
-484
-321
-318
-528
-284
-79
-365
-370
-111
-281
-480
-322
-250
-370
-295
-151
-306
-258
-60
-326
-241
150
7
-137
58
140
-117
-94
258
129
-36
225
320
60
9
237
105
62
329
156
52
162
57
-53
2
60
-137
-212
-35
-54
-226
-128
-46
-271
-213
-8
-217
-268
-99
-230
-343
-91
-127
-396
-204
-144
-314
-200
-141
-367
-374
-116
-167
-416
-269
-102
-308
-324
-25
-95
-177
16
-102
-278
-86
-68
-321
-201
-66
-260
-345
-125
-78
-321
-248
-103
-376
-393
-38
-183
-375
-52
-92
-386
-243
-118
-291
-352
-181
-127
-196
-94
-120
-315
-229
-99
-184
-133
84
-26
-209
0
124
1
104
360
267
126
249
90
-78
46
-76
-298
-188
-43
-337
-445
-167
-315
-447
-139
-69
-395
-341
-164
-504
-233
1042
2470
3743
4461
3836
2448
1601
888
287
202
111
-185
-439
-263
-278
-622
-419
-260
-566
-535
-341
-487
-532
-332
-310
-513
-443
-259
-367
-408
-280
-420
-555
-211
-124
-382
-308
-152
-331
-312
-30
-154
-265
-65
-56
-240
-29
227
-82
-112
262
91
-117
116
128
-24
62
223
149
137
308
217
81
294
264
-78
72
118
-178
-105
15
-134
-174
-38
-138
-286
-153
-50
-182
-317
-51
-20
-258
-38
-29
-275
-107
62
-248
-306
42
-77
-194
103
47
-243
-82
107
-131
-123
56
-88
-147
47
45
-145
9
39
-226
-85
121
-12
-99
28
17
-151
-151
-29
-101
-141
70
-43
-192
-9
-118
-269
-119
20
-34
-117
44
10
-258
-15
164
-200
-63
212
56
89
272
141
-54
179
304
211
428
581
235
108
433
274
6
211
106
-225
-119
109
-98
-255
38
-125
-459
-13
82
-288
-71
-127
-265
579
1924
3384
4494
4424
3297
1979
1126
869
505
16
80
-68
-389
-205
-252
-385
-180
-206
-410
-294
-117
-299
-431
-182
-149
-471
-236
64
-299
-373
-36
-167
-378
-108
-102
-289
-132
-25
-81
-149
-34
71
-62
46
142
4
102
207
100
133
244
144
18
252
375
34
117
387
173
151
419
196
-7
330
277
24
127
149
-22
-86
89
-87
-292
32
-14
-292
-43
106
-165
-188
25
-43
-163
-36
-45
-274
-145
102
-98
-223
-53
-74
-191
26
125
-138
-146
16
-99
-159
101
22
-223
10
89
-217
-236
-14
-137
-189
70
-65
-224
15
-51
-301
-82
66
-180
-236
25
-25
-290
-109
29
-142
-40
98
-134
-186
16
-34
-247
-96
100
-62
48
203
-7
47
195
130
139
247
375
248
160
268
88
-85
54
1
-277
-152
-97
-369
-263
-110
-308
-323
-181
-259
-348
-209
-233
-602
41
1626
2868
3968
4414
3405
1944
1137
725
368
181
13
-284
-426
-277
-360
-531
-266
-305
-614
-413
-278
-422
-438
-329
-356
-481
-351
-308
-478
-382
-266
-486
-366
-100
-292
-402
-146
-120
-349
-159
18
-110
-92
1
-36
-87
94
178
-41
8
242
116
132
337
75
2
326
278
82
254
383
125
139
394
184
-49
69
10
-188
40
155
-192
-243
14
-56
-228
-33
-23
-237
-107
25
-275
-272
25
-150
-304
-22
43
-231
-157
4
-81
-188
-92
-11
-177
-46
77
-175
-124
98
-92
-148
93
-93
-229
-53
-87
-182
-83
-14
-198
-220
29
-111
-329
-45
70
-162
-107
54
-58
-202
-105
-69
-233
-119
-38
-247
-132
68
-112
-212
-65
15
-19
163
237
-75
-31
293
191
105
396
368
123
150
196
19
-75
99
-106
-321
0
-72
-366
-174
-91
-257
-359
-261
-208
-245
-182
-405
-354
766
2301
3552
4382
3921
2449
1424
895
552
233
61
-29
-400
-438
-225
-476
-576
-353
-428
-481
-351
-359
-496
-464
-245
-386
-497
-214
-258
-371
-245
-229
-424
-383
-110
-261
-351
-201
-249
-287
-146
-133
-357
-281
-94
-228
-283
-90
-53
-217
-98
-11
-172
-63
28
-132
-102
76
7
-94
59
81
-165
-94
116
-123
-222
-33
-192
-361
-158
-115
-354
-320
-176
-345
-364
-140
-338
-423
-79
-169
-395
-261
-79
-206
-314
-59
-89
-322
-66
34
-333
-254
18
-142
-245
-118
-165
-323
-156
-4
-278
-268
82
-109
-397
-63
-59
-381
-105
51
-244
-194
-34
-270
-352
-53
-81
-351
-102
5
-304
-225
-9
-224
-312
-12
-67
-238
-221
-174
-170
-144
66
-93
-206
154
119
-182
-31
119
15
143
364
166
-56
323
305
-146
134
199
-272
-295
-128
-256
-346
-176
-252
-422
-315
-161
-325
-387
-151
-446
-565
375
1571
2722
4201
4595
3183
2007
1270
485
321
280
-75
-469
-484
-336
-510
-487
-361
-572
-582
-387
-473
-650
-475
-311
-607
-621
-300
-447
-534
-295
-393
-552
-356
-327
-614
-372
-80
-348
-340
-168
-273
-396
-174
-55
-324
-253
27
-93
-179
23
8
-110
2
97
-63
40
264
-42
-115
274
282
1
34
124
-70
-178
-31
-45
-250
-107
-69
-313
-116
-63
-382
-313
-53
-170
-324
-172
-132
-314
-328
-164
-299
-296
-24
-300
-513
-54
30
-356
-176
20
-252
-269
-52
-136
-272
-49
-103
-286
-108
-101
-252
-182
-35
-249
-354
-73
-118
-330
-85
62
-386
-302
15
-298
-328
40
-39
-360
-165
-76
-395
-353
-139
-207
-294
-132
-58
-253
-132
-53
-379
-236
83
-69
-169
46
68
-182
-22
138
-51
17
278
280
131
183
183
45
101
121
-179
-257
-125
-278
-380
-242
-268
-515
-344
-107
-480
-394
88
-338
-684
160
1255
2375
3966
4580
3412
2303
1502
591
334
271
-34
-363
-313
-272
-674
-593
-234
-459
-593
-327
-443
-691
-490
-348
-568
-451
-200
-465
-568
-339
-337
-526
-382
-268
-531
-375
-194
-427
-393
-236
-347
-415
-175
-20
-289
-368
-15
-114
-324
-9
-10
-262
-42
133
-183
-176
90
-47
-116
140
149
-99
-17
173
-157
-290
87
-127
-356
-60
-171
-421
-207
-176
-371
-276
-137
-336
-492
-183
-142
-435
-248
-113
-415
-337
-53
-301
-426
-201
-234
-360
-271
-158
-305
-270
-10
-232
-441
-86
-88
-381
-160
-37
-273
-207
-68
-224
-322
-68
-65
-371
-204
-39
-350
-329
-72
-186
-298
-154
-155
-298
-137
-85
-420
-356
-30
-158
-291
-147
-144
-294
-202
-13
-130
-145
-2
-83
-76
118
68
-109
94
319
136
66
276
142
-40
227
117
-247
-204
-200
-319
-337
-160
-192
-427
-175
-131
-424
-211
-90
-452
-673
-175
923
2252
3877
4664
3709
2486
1626
710
411
446
-67
-369
-217
-358
-490
-423
-350
-507
-630
-363
-422
-577
-311
-343
-591
-388
-252
-560
-493
-155
-297
-433
-278
-248
-355
-217
-140
-355
-198
32
-194
-285
-20
-57
-219
-18
34
-128
-41
163
12
-145
91
104
-52
77
98
-11
109
235
130
-12
185
275
-35
27
145
-121
-114
22
-165
-272
-63
-107
-301
-102
-24
-288
-238
-53
-167
-232
-95
-79
-240
-141
65
-158
-268
39
-42
-174
123
106
-221
-113
134
-39
-11
161
-54
-122
77
94
-141
-124
85
-100
-80
151
-34
-120
72
31
-241
-93
116
-132
-152
26
-60
-162
-79
-29
-129
-96
87
-86
-176
68
-98
-129
206
156
-34
129
242
-82
-37
380
261
106
399
401
74
159
329
37
-182
62
-119
-400
-53
-58
-321
-212
-106
-303
-327
-127
-184
-340
-421
-178
544
1910
3647
4431
3952
2914
1664
823
661
374
-70
-21
-8
-425
-429
-204
-321
-421
-344
-368
-454
-275
-165
-373
-442
-188
-193
-414
-240
-179
-384
-232
-66
-275
-234
17
-118
-219
-125
-66
-148
-88
176
42
-37
171
53
7
228
130
-20
111
216
-62
-44
333
181
58
285
258
3
198
346
-25
-113
84
52
-95
52
7
-168
-10
-40
-234
-223
-62
-155
-339
-59
10
-330
-143
-65
-306
-232
-127
-305
-385
-129
-106
-277
-211
-96
-323
-281
-13
-200
-370
-179
-32
-196
-168
-60
-278
-349
-130
-146
-318
-173
-86
-331
-340
-134
-319
-335
-109
-264
-367
-143
-49
-278
-247
-116
-282
-289
-92
-192
-342
-99
-130
-392
-135
118
-18
-115
14
-16
-186
139
340
43
133
359
47
83
366
34
-182
-31
-40
-246
-245
-92
-330
-387
-166
-344
-335
-164
-153
-239
-365
-358
-94
997
2692
3977
4247
3595
2451
1150
489
616
292
-201
-193
-317
-429
-379
-378
-509
-478
-286
-422
-514
-385
-413
-514
-330
-313
-640
-449
-201
-537
-488
-89
-408
-547
-48
-142
-467
-248
-104
-414
-260
62
-176
-228
-41
-22
-148
-89
85
-33
-48
181
53
-178
118
207
-70
90
255
49
99
289
107
-31
126
43
-140
4
-13
-232
-177
-29
-152
-253
-157
-123
-315
-219
-8
-244
-281
-62
-151
-286
-128
-123
-296
-203
43
-65
-224
10
-21
-231
-8
119
-109
-41
97
-177
-172
106
-84
-124
27
-151
-141
65
57
-165
-188
-24
-58
-283
-149
107
-214
-284
-144
-259
-95
43
-157
-254
-81
-6
-175
-151
-28
-153
-196
-56
-46
-71
141
155
-74
50
152
14
92
289
225
174
468
359
-39
176
298
-23
18
54
-192
-299
-148
-39
-388
-339
-39
-295
-338
-87
-220
-453
-264
311
1378
2880
4185
4389
3507
2527
1398
406
482
479
-228
-268
-68
-442
-481
-172
-311
-467
-278
-334
-461
-300
-214
-414
-431
-257
-245
-364
-349
-281
-363
-262
-53
-205
-370
-140
-178
-363
-159
-84
-220
-103
-33
-206
-193
116
110
-74
142
102
-107
168
325
-26
-19
327
260
52
239
359
156
175
234
161
78
153
48
-126
114
21
-221
-9
32
-203
-125
48
-89
-271
-124
-14
-293
-255
75
-116
-257
19
-86
-332
-70
-10
-336
-121
83
-150
-145
11
-68
-166
71
109
-170
-66
73
-119
-189
-15
-40
-170
25
30
-218
-93
28
-196
-214
-2
-88
-244
-58
-21
-170
-90
-21
-180
-232
5
-81
-282
-117
1
-66
-35
148
66
-58
98
33
-43
212
285
105
169
380
180
39
272
119
-146
-39
-126
-372
-210
-47
-320
-353
-44
-258
-494
-182
-134
-369
-427
-359
65
1085
2737
4214
4325
3446
2393
1171
504
592
219
-143
-140
-404
-479
-339
-391
-533
-435
-357
-536
-559
-329
-435
-611
-320
-275
-453
-411
-252
-340
-491
-248
-217
-464
-257
-120
-435
-371
-80
-198
-268
-39
-79
-259
-52
96
-116
-147
124
75
-82
148
104
-118
161
299
-51
2
335
134
-78
228
265
-43
101
162
-192
-132
93
-227
-299
36
-187
-424
-172
-182
-273
-142
-112
-298
-337
-89
-228
-402
-145
-94
-311
-231
-87
-273
-295
-19
-82
-317
-100
29
-197
-175
-28
-142
-245
-37
-132
-317
-63
-61
-261
-212
-91
-217
-280
-57
-145
-397
-126
-40
-432
-218
-16
-308
-274
-101
-235
-408
-185
-105
-286
-213
-154
-265
-244
56
42
-203
-11
8
-194
-8
207
78
86
351
179
-131
50
-7
-282
-116
-86
-364
-439
-199
-247
-522
-328
-172
-454
-353
-168
-445
-570
-383
276
1387
2854
4288
4173
2949
2032
993
491
515
-18
-393
-217
-183
-514
-502
-323
-539
-558
-361
-432
-517
-405
-367
-533
-482
-241
-461
-525
-223
-264
-512
-533
-270
-294
-321
-155
-279
-374
-164
-73
-266
-192
-63
-243
-159
104
-47
-181
77
35
-127
99
158
-60
42
235
8
-70
236
292
-7
126
251
-70
17
171
-64
-186
-3
-30
-325
-158
59
-265
-271
-61
-289
-334
-25
-146
-372
-237
-162
-290
-180
50
-167
-280
-87
-75
-218
-81
13
-261
-127
125
-183
-268
107
-10
-387
-134
78
-259
-219
67
-190
-277
-24
-133
-271
-135
-23
-210
-280
-50
-186
-387
-121
-60
-288
-162
-78
-302
-213
-34
-260
-351
-129
-92
-190
-17
50
-103
1
61
-218
-143
280
190
-12
257
246
-102
-14
126
-122
-344
-179
-145
-413
-338
-290
-402
-388
-179
-231
-530
-278
-191
-632
-686
-59
919
2267
3826
4381
3364
2277
1463
570
511
456
-162
-304
-211
-491
-570
-359
-466
-678
-509
-324
-552
-540
-305
-477
-496
-185
-291
-566
-319
-243
-528
-338
-98
-354
-411
-101
-136
-451
-388
-199
-320
-255
-3
-48
-131
2
15
-138
35
161
-80
-30
95
-46
44
266
134
9
121
250
177
120
280
151
-147
41
124
-142
18
36
-285
-177
-26
-213
-223
-72
-114
-221
-98
-105
-313
-221
-50
-184
-240
-72
-197
-278
-33
-50
-306
-137
131
-101
-163
101
-4
-161
-5
74
-119
-116
186
72
-142
4
19
-112
26
79
-239
-179
142
-103
-279
-70
-118
-189
14
103
-202
-228
37
-174
-320
53
65
-234
-119
8
-233
-191
36
-199
-204
216
124
-192
124
263
-118
-4
367
207
118
443
315
8
196
258
-20
-39
79
-190
-375
-81
-66
-440
-277
-138
-393
-239
-20
-197
-330
-322
-324
309
1687
3164
4189
4242
3376
2053
958
715
598
14
-124
-84
-494
-431
-222
-520
-608
-397
-404
-538
-325
-204
-559
-553
-310
-432
-463
-294
-315
-409
-326
-254
-353
-376
-205
-315
-351
-86
-274
-379
-43
-77
-259
-114
35
-98
-190
93
94
-169
61
304
20
-7
305
143
66
311
252
30
234
368
-25
20
267
17
-80
-8
-62
-166
-170
27
-123
-232
-46
-164
-271
-72
-75
-332
-233
-36
-276
-280
4
-150
-308
-97
-103
-399
-129
206
-120
-173
71
-113
-314
-6
62
-267
-102
90
-145
-154
28
-166
-288
58
88
-216
-63
94
-203
-214
37
-49
-265
-87
-6
-294
-139
-33
-303
-235
38
-110
-281
-24
-46
-348
-189
45
-167
-173
-54
-147
-55
116
49
-168
-49
161
-41
9
296
158
40
253
172
-62
51
51
-258
-300
-46
-198
-450
-243
-201
-452
-317
-110
-343
-426
-165
-469
-644
244
1385
2650
4185
4579
3197
1991
1389
554
337
407
-121
-425
-287
-283
-558
-599
-332
-368
-541
-414
-353
-594
-447
-313
-562
-460
-231
-362
-494
-291
-191
-400
-315
-143
-401
-395
-89
-225
-316
-111
-124
-302
-229
55
-72
-162
117
19
-203
68
239
47
115
244
22
43
269
120
97
325
313
138
197
215
9
-3
117
1
-149
-42
-45
-277
-36
197
-302
-261
133
-92
-160
28
-78
-215
-48
3
-231
-202
-33
-118
-170
-69
-87
-180
-12
76
-144
-130
41
-15
-120
-18
-60
-285
-89
228
20
-112
120
-11
-164
-14
-59
-232
-43
137
-130
-101
130
-137
-332
28
91
-211
-70
11
-200
-136
-8
-56
-182
-182
-105
-198
-48
113
-118
-126
139
59
-96
193
268
52
227
343
192
302
411
227
71
144
158
-85
-115
-118
-319
-260
-111
-155
-260
-213
-116
-227
-226
-63
-311
-562
-18
829
1969
3673
4650
3982
2785
1772
784
491
488
30
-368
-264
-267
-564
-434
-300
-574
-619
-300
-344
-479
-259
-305
-489
-322
-232
-473
-435
-143
-358
-503
-163
-292
-438
-207
-182
-261
-146
-25
-211
-171
39
-115
-202
57
165
-69
-33
139
12
-54
133
175
-25
47
229
60
24
334
162
-107
240
265
8
157
152
-84
-142
30
-76
-290
11
-35
-262
-9
94
-158
-185
-25
-127
-175
15
37
-139
19
163
-157
-276
8
42
-66
107
104
-37
8
61
-28
14
126
21
-6
14
-44
-12
120
191
-20
-162
41
-41
-184
106
80
-222
-19
84
-203
-196
32
16
-137
62
21
-338
-22
224
-122
-133
108
-56
-266
-115
74
6
0
207
125
6
292
217
78
381
361
162
177
292
147
57
266
-20
-360
-77
-13
-222
-195
-102
-169
-242
-19
-149
-341
2
-153
-709
-241
1075
2272
3713
4699
3846
2346
1598
972
415
342
71
-379
-334
-91
-307
-509
-191
-223
-601
-404
-126
-363
-377
-238
-467
-442
-234
-256
-452
-390
-164
-416
-489
-98
-206
-382
-53
-111
-296
-121
-110
-251
-163
26
-56
-186
-31
81
-122
-62
225
14
-113
189
104
-145
95
248
2
53
308
78
-26
264
101
-139
76
156
-242
-201
69
-201
-224
18
-120
-339
-83
-14
-273
-164
-32
-192
-279
-41
-114
-360
-47
71
-186
-96
-1
-210
-172
55
-43
-221
-57
37
-221
-75
123
-146
-97
62
-139
-244
41
31
-238
-126
68
-115
-287
-6
-38
-283
-33
57
-303
-221
54
-162
-299
-86
-103
-269
-62
-92
-346
-109
-5
-279
-263
-36
-171
-307
31
135
-227
-138
181
-34
-75
289
245
-18
255
305
-76
33
127
-87
-228
-191
-216
-366
-219
-231
-484
-300
-173
-431
-368
-197
-288
-400
-436
46
1180
2722
4188
4306
3364
2410
1119
438
626
303
-268
-272
-214
-480
-518
-364
-400
-624
-547
-262
-485
-549
-267
-497
-544
-161
-365
-518
-248
-304
-434
-271
-248
-461
-424
-178
-210
-332
-173
-174
-347
-256
-75
-123
-170
-3
-100
-208
35
68
-102
-65
49
-165
-202
274
210
-62
98
11
-36
191
175
-107
-83
131
-51
-228
-114
-146
-355
-296
-254
-452
-389
-166
-281
-366
-82
-166
-471
-315
-148
-384
-408
-105
-182
-337
-197
-168
-397
-274
-41
-371
-374
-56
-121
-279
-103
-26
-346
-195
59
-214
-221
39
-134
-277
-58
-126
-333
-158
-69
-265
-308
-114
-210
-357
-135
-157
-392
-211
31
-251
-343
-52
-109
-291
-150
-149
-339
-214
-107
-264
-235
-158
-252
-258
-89
-66
-298
-41
230
-39
-97
102
71
-57
243
276
46
269
328
63
-6
80
-43
-292
-316
-191
-349
-352
-160
-391
-418
-88
-225
-458
-186
-216
-678
-392
636
1756
3162
4377
4131
2895
1901
970
339
358
226
-305
-548
-241
-290
-660
-483
-377
-591
-543
-432
-572
-665
-395
-384
-573
-346
-397
-674
-400
-176
-398
-498
-287
-358
-503
-211
-306
-486
-256
-215
-333
-338
-203
-153
-255
-96
38
-144
-114
126
-44
-150
182
149
-89
55
171
11
127
372
173
29
174
58
-151
101
191
-178
-108
90
-216
-254
97
-160
-428
-85
-9
-342
-303
-18
-128
-247
-39
-120
-488
-148
183
-237
-266
61
-115
-209
23
-129
-270
-89
-6
-162
-111
87
-121
-164
90
-20
-341
-155
136
-210
-139
161
-161
-158
71
-56
-133
27
17
-217
-167
-23
-121
-165
69
40
-209
36
37
-270
-48
61
-240
-271
19
4
-164
37
97
-110
17
210
-5
18
260
105
-3
196
383
240
217
384
182
184
297
76
-58
18
8
-195
-215
-72
-260
-372
-103
-182
-378
-59
34
-366
-442
-205
306
1475
3163
4381
4252
3267
2142
1010
505
617
268
-159
-101
-204
-505
-425
-276
-501
-421
-202
-432
-503
-279
-285
-433
-218
-172
-488
-335
-96
-285
-397
-255
-182
-364
-278
-8
-246
-318
-36
-197
-288
124
22
-205
69
62
-117
9
144
41
38
240
158
-46
149
125
-80
212
387
135
100
326
217
-12
106
91
-190
-97
104
-152
-239
-38
-87
-223
-100
2
-258
-292
-60
-231
-311
-31
-131
-375
-205
-93
-211
-76
18
-192
-225
-39
-79
-234
-101
-5
-212
-130
121
-180
-371
58
89
-242
-49
61
-281
-237
-4
-167
-256
-104
-106
-369
-260
25
-241
-241
6
-228
-349
-67
-130
-394
-229
-11
-232
-308
-25
-187
-352
-98
-51
-272
-260
-102
-229
-107
185
-3
-92
108
44
-75
228
290
71
277
313
-14
-92
31
-7
-310
-341
-190
-387
-328
-172
-452
-476
-96
-192
-490
-274
-198
-623
-528
405
1493
2889
4350
4222
2739
1722
1035
457
346
177
-233
-396
-275
-408
-595
-368
-294
-537
-471
-300
-529
-572
-204
-314
-610
-314
-228
-562
-399
-140
-424
-532
-220
-248
-395
-144
-96
-343
-206
75
-201
-289
39
-143
-250
47
16
-197
-26
254
47
-59
223
66
-174
160
298
-22
63
294
2
-60
305
165
-122
46
92
-220
-136
88
-301
-340
58
-86
-430
-248
28
-136
-165
-50
-238
-248
11
-137
-374
-111
82
-159
-196
62
17
-105
136
109
-174
-62
91
-80
-85
61
-118
-227
-10
-18
-268
-100
48
-234
-145
122
-105
-273
-103
-120
-246
-52
39
-341
-340
40
-162
-381
-132
-190
-401
-194
-67
-338
-354
-79
-191
-443
-141
-25
-334
-165
-37
-282
-280
-76
-166
-253
11
91
-71
-32
97
-17
-48
253
202
76
355
198
-26
124
-21
-190
-134
-80
-305
-365
-116
-327
-481
-203
-152
-384
-386
-155
-286
-634
-195
830
1926
3543
4624
3827
2629
1867
763
305
475
102
-315
-267
-230
-498
-501
-317
-540
-619
-344
-374
-561
-396
-261
-458
-424
-234
-397
-476
-221
-280
-442
-211
-170
-414
-400
-107
-97
-275
-137
-182
-261
-33
14
-188
-181
2
-194
-283
87
87
-293
-121
172
-122
-83
140
-145
-132
166
110
-59
104
174
-103
-34
86
-151
-179
32
-77
-357
-237
-121
-343
-268
-6
-162
-379
-108
-51
-308
-135
-134
-354
-207
-197
-263
-152
11
-91
-338
-108
-14
-245
-217
27
-110
-383
-112
49
-273
-134
62
-280
-168
62
-210
-193
23
-148
-263
-28
-36
-335
-211
103
-110
-310
26
-82
-405
-69
78
-211
-195
-31
-191
-253
22
-42
-271
-95
-44
-189
-219
-94
6
-176
-57
134
-131
61
334
-18
-12
236
154
168
399
358
186
371
429
120
124
315
-47
-265
-3
-22
-293
-130
60
-261
-237
76
-103
-312
-45
-229
-491
273
1450
2638
4044
4686
3637
2268
1552
888
418
387
200
-244
-341
-112
-243
-398
-182
-291
-454
-233
-237
-465
-380
-167
-304
-404
-213
-207
-361
-284
-120
-343
-336
16
-92
-237
-99
-19
-122
-104
-25
-113
-73
120
3
-90
196
140
-167
32
357
145
119
355
150
58
294
254
101
238
358
161
28
278
157
-66
330
302
-105
68
87
-175
-32
180
36
-135
65
31
-234
-72
95
-56
-126
21
-127
-316
90
171
-156
14
92
-78
-13
120
-11
-121
154
163
-113
-29
219
-1
-153
166
57
-208
59
157
-138
29
153
-147
-98
74
-85
-108
85
26
-88
48
195
-7
-101
77
-68
-155
63
25
-147
-1
132
-2
-4
162
7
-69
335
276
11
181
345
230
150
413
488
290
447
401
83
244
238
-129
-99
135
-66
-245
-33
-77
-225
-89
5
-187
-164
87
-322
-394
765
1921
3176
4600
4568
3083
1892
1187
639
490
353
39
-291
-208
-87
-298
-356
-193
-252
-394
-191
-224
-466
-273
-134
-419
-387
-74
-206
-394
-155
-38
-299
-258
-14
-148
-200
41
-127
-286
47
41
-223
-101
73
-22
7
131
-41
-38
376
339
-29
106
219
28
156
376
181
9
295
334
64
206
188
-51
65
247
35
-177
-15
-23
-156
-59
31
-191
-187
64
-144
-275
-23
20
-206
-179
-19
-163
-145
124
-21
-225
-56
-37
-215
-59
96
-105
-123
54
-44
-177
-9
-114
-188
54
21
-140
-147
9
-65
-319
-2
95
-238
-69
-7
-267
-233
-115
-216
-174
-16
-137
-321
-95
40
-238
-226
17
-226
-364
39
0
-270
53
158
-139
-101
48
39
105
279
231
188
334
284
-8
-30
237
98
-178
-29
-85
-454
-254
2
-336
-366
-85
-276
-428
-151
-107
-445
-454
104
907
2270
3952
4477
3534
2445
1475
547
490
502
-132
-334
-126
-353
-607
-388
-307
-522
-447
-297
-498
-480
-257
-384
-441
-316
-409
-506
-307
-137
-359
-386
-129
-271
-394
-153
-167
-341
-182
15
-133
-319
-103
33
-181
-84
100
-114
-51
233
-33
-107
230
47
-56
248
230
1
185
358
67
68
335
127
-108
173
266
-29
-55
-40
-145
-42
112
-17
-136
72
-37
-315
-54
87
-194
-230
-3
-47
-281
-41
66
-192
-49
28
-227
-110
193
84
-172
29
135
-122
-56
57
-118
-103
159
41
-160
39
-17
-211
-56
37
-83
-158
37
-106
-277
113
24
-302
-21
89
-115
-150
-43
-40
-205
-46
7
-356
-156
166
-72
-223
40
140
-84
85
167
-116
85
334
103
63
374
370
163
260
155
-28
148
132
-227
-214
-20
-411
-403
37
-125
-419
-317
-191
-362
-222
-158
-540
-276
978
2380
3576
4439
4035
2722
1571
878
501
176
99
-58
-413
-409
-303
-526
-536
-332
-401
-478
-362
-297
-490
-392
-303
-540
-403
-250
-367
-470
-316
-241
-562
-329
89
-233
-362
-150
-286
-355
-108
-120
-373
-172
118
-96
-268
-39
77
-97
37
122
-219
-13
344
-59
-190
206
190
34
247
210
-48
50
193
-15
-219
-19
-34
-315
-75
53
-268
-175
-10
-273
-378
-86
-58
-343
-211
-5
-308
-274
110
-228
-437
-5
-79
-302
-63
12
-270
-296
-48
-77
-141
-20
-31
-248
-72
92
-300
-114
112
-207
-81
-43
-268
-164
-16
32
-144
-150
63
-128
-195
40
-79
-235
-64
-96
-377
-184
73
-219
-109
131
-209
-276
11
57
4
75
122
1
-29
191
109
45
411
386
66
188
238
-84
-133
181
36
-387
-226
-125
-344
-243
-151
-319
-375
-237
-277
-299
-129
-359
-560
297
1883
3284
4290
4381
3059
1633
1055
707
349
108
-146
-487
-501
-189
-390
-669
-339
-363
-614
-437
-321
-543
-529
-217
-344
-572
-379
-299
-489
-408
-373
-426
-327
-227
-289
-641
-419
-104
-316
-197
-66
-261
-224
-32
-149
-245
-71
-34
-158
-55
158
-71
-165
153
50
-96
153
115
-140
84
262
-5
-30
177
3
-172
-23
-54
-240
-310
-126
-106
-284
-90
-102
-337
-170
-62
-278
-301
-142
-153
-282
-153
-173
-342
-104
-59
-235
-130
17
-202
-293
21
-103
-284
8
33
-300
-219
79
-129
-211
81
-33
-263
-88
-18
-263
-195
-36
-269
-225
28
-112
-305
-221
-48
-185
-283
-42
-136
-293
-80
-159
-334
-111
-67
-194
-59
77
-53
-172
68
132
-88
176
358
96
220
280
15
6
59
-120
-302
-123
-87
-355
-321
-237
-289
-376
-228
-188
-479
-281
-99
-467
-545
116
900
2116
3977
4535
3521
2476
1502
626
445
334
-190
-420
-280
-384
-583
-416
-375
-658
-574
-330
-579
-594
-303
-397
-589
-409
-306
-568
-381
-222
-579
-536
-233
-349
-461
-296
-287
-421
-322
-101
-223
-360
-129
-112
-305
-64
52
-268
-174
134
-98
-316
59
130
-135
55
64
-177
70
208
-91
-141
161
141
-161
-91
-4
-239
-213
-43
-293
-385
-86
-114
-387
-334
-147
-336
-354
-87
-278
-396
-84
-162
-375
-191
-177
-303
-185
-42
-175
-339
-76
-23
-322
-85
3
-294
-99
78
-178
-203
-24
-163
-246
-82
-4
-110
-160
-21
-190
-264
10
-90
-318
-169
-70
-257
-233
-26
-150
-393
-190
-58
-209
-90
-1
-161
-79
86
-88
-148
115
134
-32
135
313
106
-12
199
-93
-328
69
-121
-356
-144
-294
-506
-363
-205
-382
-412
-206
-319
-518
-277
-279
-718
-134
1205
2303
3641
4555
3645
2085
1248
838
443
110
-88
-290
-381
-279
-318
-527
-393
-334
-590
-634
-329
-339
-586
-382
-328
-590
-394
-272
-592
-434
-221
-468
-496
-249
-371
-506
-215
-211
-452
-351
-148
-252
-308
-86
-187
-368
-133
-100
-270
-120
86
-46
-186
40
50
-159
-42
-6
-124
6
189
-6
-143
111
-129
-363
-15
-85
-416
-201
-27
-295
-355
-135
-196
-423
-219
-69
-425
-383
18
-247
-422
-52
-101
-379
-281
-196
-349
-290
-172
-296
-310
-183
-213
-268
-136
-92
-295
-310
-70
-169
-304
-89
-198
-376
-206
-118
-280
-321
-133
-194
-275
-295
-308
-258
-191
-180
-335
-236
-53
-247
-383
-135
-150
-379
-157
-56
-200
-9
123
-114
-175
41
8
-36
173
385
166
-65
142
116
-53
7
-27
-295
-294
-166
-326
-330
-129
-310
-517
-220
-216
-432
-179
-284
-738
-226
934
2131
3655
4508
3647
2269
1491
897
345
201
17
-363
-422
-272
-378
-620
-451
-339
-551
-539
-379
-531
-635
-367
-277
-487
-551
-370
-464
-430
-138
-430
-559
-194
-273
-531
-362
-280
-496
-440
-150
-233
-436
-197
-188
-386
-180
-122
-303
-51
39
-302
-213
85
0
-148
53
63
-100
26
143
-25
-196
11
2
-163
-23
-67
-354
-303
-33
-184
-274
-69
-227
-345
-107
-134
-430
-325
-40
-224
-354
-106
-210
-468
-91
13
-436
-239
126
-169
-320
-50
-14
-244
-116
22
-205
-109
63
-86
-156
32
-128
-429
28
173
-215
-136
-87
-188
-152
-58
47
-97
-135
25
-153
-185
1
-96
-113
-90
-107
-100
9
111
-114
-160
153
66
-59
250
165
-117
122
351
74
243
557
289
309
449
246
52
89
50
-172
-116
25
-205
-363
-79
-68
-294
-161
-43
-297
-160
-34
-593
-338
883
2031
3224
4524
4368
2896
1941
1144
538
432
282
-46
-304
-248
-208
-457
-501
-319
-409
-449
-295
-334
-523
-424
-200
-298
-408
-231
-318
-524
-166
-143
-565
-228
67
-261
-264
-96
-214
-276
-98
-134
-330
-110
118
-157
-254
106
90
-103
57
90
14
91
181
45
-40
180
204
-13
48
249
73
54
232
-106
-222
118
-36
-236
-39
-59
-365
-341
-36
-171
-224
-47
-154
-237
-129
-136
-309
-278
-166
-422
-346
91
-142
-338
-59
-57
-303
-304
-48
-89
-160
33
-145
-325
-109
-24
-103
-28
-24
-240
-227
0
-165
-267
2
-180
-394
-147
-58
-193
-259
-140
-150
-281
-83
-82
-343
-226
-44
-244
-319
-110
-216
-417
-199
-95
-266
-109
113
-176
-291
110
62
-84
206
180
7
120
199
50
-64
23
-124
-360
-215
-197
-416
-323
-259
-467
-415
-191
-358
-493
-210
-161
-586
-587
283
1207
2564
4286
4462
3060
2049
1368
443
378
424
-187
-437
-302
-425
-625
-440
-375
-670
-557
-306
-495
-657
-513
-486
-591
-435
-377
-626
-487
-232
-441
-472
-258
-391
-527
-273
-359
-560
-277
-170
-297
-216
-175
-279
-224
-108
-52
-213
-159
152
-150
-164
207
6
-134
157
149
-160
72
257
45
81
200
-56
-140
131
-3
-210
-49
-49
-332
-261
-17
-204
-387
-117
-45
-309
-181
-69
-348
-340
-66
-147
-349
-233
-233
-284
-132
-49
-286
-386
55
7
-243
22
14
-289
-149
19
-201
-151
97
-61
-271
-70
-32
-289
-217
16
-193
-256
10
-96
-229
-169
-118
-176
-143
-21
-190
-253
-63
-104
-176
-89
-48
-172
-214
-30
-93
-104
193
75
-169
121
158
-51
216
278
56
254
378
80
1
181
91
-162
-91
26
-275
-396
-87
-161
-416
-206
-155
-425
-322
-94
-192
-326
-457
-294
766
2419
3884
4392
3714
2509
1366
686
592
254
-252
-144
-156
-494
-353
-284
-563
-489
-254
-421
-562
-292
-255
-523
-509
-238
-302
-372
-181
-310
-428
-199
-189
-432
-327
-177
-357
-353
-118
-167
-336
-102
-26
-342
-111
147
-144
-117
195
-22
-233
158
202
-122
24
179
-22
-14
177
108
-37
207
237
-108
3
229
-82
-193
154
-44
-323
-76
-7
-242
-150
91
-189
-352
-33
-82
-200
-29
-140
-244
-112
-55
-179
-140
118
-36
-177
53
-27
-194
19
161
-82
-134
97
-13
-191
45
92
-215
-109
60
-136
-147
82
50
-144
26
-18
-295
-71
32
-204
-104
51
-114
-201
1
-37
-268
-84
44
-182
-245
52
-22
-194
195
232
-56
72
253
54
37
344
245
113
411
396
-57
9
162
-141
-108
-44
-203
-276
-107
-51
-354
-279
-8
-252
-380
-94
-163
-398
-365
-74
696
2149
3767
4431
3821
2730
1608
698
631
483
-198
-253
-154
-390
-441
-215
-321
-630
-337
-282
-545
-380
-377
-482
-330
-185
-235
-411
-327
-225
-461
-387
-149
-333
-267
-68
-255
-406
-170
-74
-348
-201
96
-125
-223
75
-55
-287
30
209
14
59
193
-28
-33
277
32
-226
72
114
-48
89
259
55
-41
99
-156
-209
49
-18
-243
-289
-154
-203
-237
-94
-303
-368
-6
-194
-473
-176
-33
-301
-365
-137
-155
-292
-58
-32
-377
-256
-21
-193
-243
-40
-102
-295
-139
25
-173
-198
-65
-211
-230
-92
-179
-244
-17
-23
-323
-228
-67
-260
-225
-78
-218
-307
-149
-113
-281
-181
-41
-230
-293
-125
-201
-355
-120
73
-173
-162
45
-65
-90
116
45
-129
154
304
117
145
230
-34
-221
18
-171
-521
-266
-170
-407
-381
-256
-460
-485
-155
-240
-449
-231
-340
-695
-210
930
2129
3515
4384
3589
2229
1392
730
354
171
-107
-374
-451
-307
-465
-708
-399
-416
-746
-534
-292
-559
-691
-427
-546
-693
-398
-382
-605
-480
-415
-566
-502
-399
-551
-674
-504
-428
-624
-653
-502
-526
-441
-247
-405
-575
-281
-100
-423
-354
-142
-416
-359
16
-75
-351
-186
-37
-229
-166
6
-174
-217
25
-186
-500
-217
-63
-382
-434
-206
-382
-487
-214
-322
-483
-284
-329
-580
-360
-137
-411
-472
-275
-316
-364
-157
-203
-421
-262
-168
-331
-339
-116
-148
-411
-192
-66
-448
-396
-212
-408
-343
-196
-241
-301
-231
-214
-377
-292
-192
-358
-407
-262
-296
-452
-361
-308
-257
-172
-357
-490
-311
-78
-249
-461
-233
-172
-400
-355
-152
-249
-268
88
52
-151
-51
22
-72
100
312
121
108
49
-60
176
178
-11
-191
-215
-84
-352
-412
-215
-387
-446
-261
-361
-481
-228
-265
-532
-441
-256
169
1308
2984
4272
4173
3242
2280
994
390
637
276
-305
-330
-294
-481
-361
-214
-505
-556
-320
-483
-579
-367
-505
-635
-290
-180
-506
-451
-248
-496
-525
-287
-276
-436
-392
-144
-278
-409
-218
-217
-281
-63
-54
-306
-177
4
-164
-186
81
30
-91
154
120
-47
80
147
-55
-60
146
91
83
126
78
-93
-30
179
-122
-213
-17
-175
-284
-80
-53
-245
-174
-57
-260
-341
-224
-154
-182
-121
-38
-284
-235
-24
-187
-203
-37
-136
-357
-145
90
-140
-101
99
-114
-227
19
3
-238
-5
77
-220
-183
-108
-170
-75
85
-87
-231
-79
-14
-217
-201
63
-144
-265
-15
-109
-316
-50
14
-255
-182
-2
-163
-332
-98
-66
-193
-5
143
-23
7
162
1
-12
235
232
86
412
371
-52
101
186
-29
-146
-80
-201
-397
-186
-312
-587
-199
-10
-337
-353
-221
-341
-445
-446
-277
251
1572
3300
4233
4038
3099
1874
828
589
443
-145
-163
-88
-409
-469
-338
-494
-685
-442
-332
-654
-491
-205
-484
-555
-314
-400
-648
-380
-251
-525
-384
-158
-306
-424
-243
-244
-433
-207
-62
-415
-292
55
-185
-268
-27
-37
-161
-50
11
-130
5
210
61
5
162
53
-89
178
233
-48
53
280
68
-79
125
-21
-267
-96
-145
-286
-90
-35
-222
-285
-164
-201
-326
-205
-111
-291
-259
-96
-285
-319
-111
-198
-385
-202
-36
-306
-257
-85
-258
-247
-99
-64
-151
-63
4
-246
-262
11
-182
-271
27
-89
-263
-134
-98
-271
-324
-217
-235
-226
-56
-195
-378
-199
-155
-281
-154
-126
-358
-277
-83
-374
-456
-74
-4
-175
-111
71
-41
-104
59
7
-48
256
322
85
193
338
57
-190
69
52
-375
-211
-64
-375
-381
-158
-261
-370
-164
-229
-496
-308
-76
-478
-612
-91
610
2029
3772
4421
3676
2565
1629
649
362
440
-24
-297
-133
-327
-657
-364
-290
-601
-481
-361
-576
-626
-355
-384
-614
-345
-261
-641
-499
-206
-422
-470
-197
-309
-449
-386
-309
-292
-331
-98
-241
-522
-172
-75
-252
-116
-40
-157
-68
93
-165
-117
223
25
-182
78
167
-185
-38
179
-117
-87
144
-76
-242
-50
-126
-241
-125
-74
-271
-368
-180
-292
-445
-156
-79
-458
-466
-100
-249
-389
-140
-265
-423
-147
-62
-330
-200
-43
-330
-294
20
-91
-301
-75
98
-252
-299
-11
-145
-289
-161
-62
-207
-157
-88
-295
-145
-40
-305
-302
-14
-78
-303
-147
-158
-312
-286
-117
-201
-342
-60
-137
-384
-150
-161
-453
-233
19
-162
-252
4
5
-253
-4
194
-89
-5
205
82
15
206
97
-302
-87
136
-288
-466
-146
-263
-504
-253
-282
-521
-292
-203
-538
-440
-121
-381
-647
-145
887
2189
3799
4414
3361
2243
1440
624
336
347
2
-361
-264
-327
-658
-468
-369
-683
-547
-354
-602
-644
-304
-247
-573
-537
-255
-390
-503
-243
-266
-513
-382
-265
-505
-380
-36
-374
-574
-56
-77
-351
-76
-21
-270
-209
-22
-174
-225
117
164
-51
96
130
-124
-46
234
74
-7
295
164
-125
63
230
-34
-71
130
-146
-286
-29
-137
-349
-220
-41
-219
-369
-44
-72
-336
-141
-206
-327
-102
-156
-298
-136
-48
-213
-249
-139
-149
-201
37
130
-238
-129
242
-93
-294
48
-5
-195
15
18
-257
-94
188
-43
-89
147
-203
-340
40
55
-210
-214
-95
-260
-335
-128
-99
-333
-231
-67
-326
-300
-142
-341
-336
-152
-201
-313
-253
-147
-120
-11
144
-139
-286
88
81
-74
56
156
116
96
162
-56
-272
-41
-63
-424
-306
-206
-478
-336
-148
-482
-445
-175
-405
-484
-244
-309
-682
-486
498
1627
3032
4404
4064
2726
1977
1078
442
443
230
-292
-517
-274
-366
-650
-482
-432
-671
-530
-338
-518
-594
-406
-427
-626
-486
-336
-535
-463
-243
-472
-585
-230
-278
-567
-342
-262
-461
-324
-252
-375
-261
-98
-148
-346
-201
18
-190
-179
100
-23
-130
51
31
-100
60
176
-111
-22
327
81
-112
115
74
-221
-65
82
-202
-162
-3
-233
-337
-90
-130
-327
-249
-135
-253
-308
-77
-177
-408
-97
-75
-368
-148
18
-226
-221
50
-198
-384
11
5
-200
-21
-28
-167
-64
27
-115
-167
120
80
-259
-83
101
-164
-128
111
-127
-229
51
-84
-281
-81
-24
-186
-124
19
-173
-257
-54
-21
-160
-54
19
-178
-42
115
-49
-41
127
27
-120
123
288
88
117
378
209
107
315
99
-165
-66
16
-185
-181
-122
-304
-303
-172
-196
-371
-296
-225
-332
-215
-210
-452
-123
1095
2639
3888
4393
3608
2205
1347
846
404
127
57
-231
-561
-381
-291
-668
-640
-348
-480
-526
-395
-443
-553
-431
-341
-480
-496
-310
-437
-593
-296
-330
-491
-298
-225
-345
-373
-234
-228
-276
-101
-80
-166
-31
-19
-159
-10
184
-82
-157
188
153
-105
83
187
-53
-31
211
146
-45
188
139
-160
77
179
-84
1
45
-354
-333
39
-30
-256
-159
-38
-253
-419
-169
-162
-316
-64
-97
-377
-199
-116
-335
-229
-55
-186
-292
-66
-65
-306
-93
-45
-339
-155
20
-222
-267
-56
-221
-411
-164
-148
-243
-139
-67
-221
-337
-118
-130
-364
-240
-71
-300
-439
-148
-159
-494
-339
-146
-293
-197
-84
-316
-322
15
-63
-219
24
-34
-280
-111
161
58
-20
260
226
46
173
56
-177
-21
26
-285
-316
-106
-291
-543
-306
-187
-396
-290
-197
-495
-368
-83
-497
-707
126
1363
2644
4031
4289
3028
2021
1342
439
248
288
-179
-466
-342
-291
-483
-647
-468
-417
-563
-349
-452
-636
-367
-369
-612
-425
-219
-546
-528
-278
-369
-460
-271
-97
-382
-394
-112
-225
-442
-293
-138
-334
-104
115
-289
-355
-152
-257
-275
-17
-73
-286
-41
106
-273
-261
125
-66
-201
138
0
-242
-20
-9
-246
-198
-80
-264
-270
-125
-244
-365
-387
-349
-280
-265
-174
-315
-404
-187
-298
-396
-218
-181
-360
-385
-157
-230
-386
-144
-141
-452
-254
-20
-265
-306
-100
-180
-265
-58
-124
-308
-124
-36
-257
-228
0
-150
-321
-162
-87
-272
-195
-71
-307
-300
-83
-260
-409
-124
-117
-333
-141
-104
-413
-303
-102
-280
-289
-173
-213
-316
-98
-9
-292
-36
162
-118
-194
62
204
-28
73
347
153
36
177
-20
-294
-32
-161
-567
-213
-39
-455
-422
-94
-434
-549
-116
-311
-540
-287
-419
-641
95
1596
2956
4020
4349
3294
1910
1045
615
409
49
-202
-277
-400
-376
-380
-639
-526
-386
-604
-427
-255
-517
-554
-365
-395
-460
-357
-334
-466
-442
-266
-333
-357
-278
-374
-368
-325
-240
-305
-406
-222
-206
-255
-61
-163
-298
-55
-38
-143
-38
186
143
42
157
119
-17
91
238
-1
-12
180
-16
-50
238
100
-230
-26
77
-210
-133
19
-200
-264
-80
-199
-381
-211
-72
-252
-306
-151
-275
-311
-88
-52
-236
-258
-65
-196
-225
95
-54
-266
12
29
-248
-103
60
-137
-111
100
-101
-175
129
-50
-297
-43
96
-102
-95
72
-109
-295
-53
-21
-219
-57
6
-152
-191
-62
-96
-284
-59
95
-277
-227
80
-62
-46
144
49
-34
171
133
-87
177
358
64
127
511
389
140
246
270
-1
-32
123
-116
-176
-45
-212
-288
-75
-71
-317
-268
-173
-259
-201
-191
-474
-308
847
2352
3538
4415
4189
2723
1660
1109
590
310
227
-119
-427
-222
-225
-463
-424
-235
-282
-510
-457
-319
-446
-300
-173
-461
-427
-160
-317
-460
-186
-207
-364
-257
-135
-178
-331
-179
-167
-298
-22
5
-209
-56
48
-129
-85
181
11
-143
160
179
25
66
203
109
-48
253
207
-43
176
174
11
66
157
41
-75
119
-109
-368
47
30
-332
-117
68
-262
-304
-47
-122
-347
-214
-34
-273
-193
117
-202
-257
50
-191
-300
14
39
-130
-41
4
-111
-59
86
-20
-143
1
43
-132
-135
6
-137
-227
25
-99
-342
-15
-23
-395
-192
-29
-333
-387
-133
-151
-308
-141
-131
-380
-274
-116
-249
-246
45
-74
-322
-90
-45
-165
-34
59
-44
20
111
-133
-235
-68
-136
-435
-455
-288
-562
-795
-560
-670
-898
-777
-840
-1070
-959
-811
-1063
-1314
-1166
-642
396
2164
3529
3148
1989
1046
-35
-628
-567
-1006
-1473
-1281
-1301
-1615
-1531
-1361
-1734
-1731
-1378
-1525
-1679
-1500
-1407
-1753
-1588
-1291
-1615
-1618
-1374
-1500
-1592
-1355
-1423
-1656
-1401
-1209
-1363
-1444
-1169
-1106
-1397
-1199
-1119
-1335
-1183
-1139
-1251
-1090
-912
-1088
-1143
-936
-955
-1129
-1099
-949
-1120
-1008
-726
-896
-1033
-813
-891
-1238
-1071
-947
-1181
-1236
-1028
-1176
-1391
-1060
-1103
-1423
-1224
-1089
-1275
-1275
-1067
-1211
-1297
-1084
-1117
-1171
-1086
-1000
-1138
-1241
-946
-941
-1119
-909
-949
-1145
-944
-802
-968
-1047
-890
-1030
-1172
-779
-881
-1185
-880
-771
-980
-1051
-888
-916
-1080
-797
-776
-1118
-972
-772
-1004
-1038
-732
-908
-1066
-732
-716
-895
-770
-664
-818
-672
-479
-812
-855
-527
-522
-705
-481
-246
-531
-548
-358
-566
-728
-656
-662
-926
-907
-658
-818
-970
-764
-820
-1076
-726
-721
-1089
-762
-752
-1270
-1029
52
1168
2519
3843
3568
2191
1176
440
-42
-126
-281
-689
-878
-708
-789
-1062
-956
-760
-938
-1028
-762
-765
-944
-850
-712
-851
-830
-573
-821
-832
-449
-641
-853
-586
-535
-766
-651
-407
-543
-659
-371
-392
-610
-401
-369
-555
-311
-108
-288
-335
-197
-231
-240
-3
6
-236
-182
-47
-188
-117
71
-88
-178
-25
-128
-279
-103
-83
-272
-282
-80
-172
-417
-213
-193
-431
-299
-247
-368
-279
-204
-273
-270
-104
-188
-379
-191
-47
-256
-336
-16
-128
-337
-62
-32
-163
-142
-60
-230
-199
114
-18
-271
-132
70
-100
-123
21
-119
-119
-36
-154
-228
13
3
-291
-119
54
-157
-125
37
-191
-203
62
-25
-169
-41
-44
-223
-101
122
95
24
176
204
-108
80
440
193
185
491
355
100
202
285
59
-93
73
-109
-307
12
-51
-334
-180
-58
-234
-321
-161
-99
-201
-224
-215
381
1724
3136
4336
4477
3416
2108
1056
822
686
140
60
-37
-383
-277
-61
-369
-461
-161
-246
-439
-274
-136
-355
-248
-9
-250
-348
-52
-93
-288
-101
-68
-245
-141
1
-153
-157
138
28
-181
10
124
101
96
187
131
36
366
290
89
371
376
152
236
528
269
184
577
497
282
325
471
426
387
402
200
177
320
109
90
323
128
10
73
114
71
95
355
151
-65
207
197
-65
-42
235
174
22
196
146
79
392
322
-61
142
368
85
74
320
171
90
346
321
88
215
356
207
106
222
231
98
319
312
-28
208
353
65
52
207
128
41
301
289
-22
133
279
100
205
364
290
249
384
429
191
229
527
496
479
693
605
367
529
587
198
240
489
185
23
147
-31
-27
251
268
40
83
226
-50
29
282
-123
-81
1090
2378
3650
4833
4568
3074
1932
1423
957
582
489
276
2
43
152
-103
-220
69
71
-121
-1
96
-95
-136
105
21
-114
167
94
-116
83
123
3
163
201
-93
-54
235
307
127
202
293
78
221
367
235
239
441
377
245
432
411
275
481
593
304
317
627
454
254
559
585
284
403
554
309
235
393
339
102
120
359
152
168
370
103
129
374
179
54
342
269
-39
151
409
182
95
331
203
95
354
355
166
192
340
224
136
378
304
174
368
297
112
281
394
142
146
381
253
133
250
265
99
200
391
120
4
266
233
39
142
332
202
96
227
181
126
394
465
148
300
498
294
414
607
509
435
591
538
270
312
468
182
-15
226
63
-105
145
82
-119
23
87
-32
64
143
-78
-270
20
726
1881
3558
4638
4225
3115
2079
1125
717
686
361
32
-25
-14
-146
-157
-57
-252
-288
-82
-162
-285
-166
-96
-246
-185
-56
-272
-226
66
-8
-240
-72
62
-203
-141
180
36
-166
117
97
-149
99
257
77
136
242
39
38
354
346
135
276
339
114
271
452
193
136
369
366
172
347
406
170
287
281
-8
5
230
117
-106
43
137
-94
-28
170
-96
-170
153
95
-231
-6
216
-7
63
122
-36
-64
120
133
-128
61
236
23
61
238
81
58
276
91
18
274
265
41
48
167
107
150
229
146
80
219
258
11
42
328
111
-63
196
79
-34
45
16
-22
104
239
-91
-90
289
249
58
244
369
88
210
404
163
226
548
442
249
370
354
45
77
206
-217
-246
52
-107
-226
-64
31
-160
-108
5
-155
-337
-383
-111
616
2038
3504
4284
4152
3224
2007
902
691
642
152
64
-52
-335
-250
-138
-329
-406
-216
-254
-339
-216
-186
-342
-343
-67
-178
-281
-36
-183
-348
-91
0
-280
-179
94
-168
-271
11
-27
-184
22
101
-102
7
173
16
-84
212
223
50
302
249
13
123
307
162
-9
297
332
41
318
503
129
86
336
112
-115
160
137
-123
-25
-27
-139
-35
58
-134
-251
163
173
-279
-85
164
-177
-142
156
-88
-127
158
1
-164
42
114
-50
55
281
65
-45
170
96
-64
116
221
-53
-113
196
-31
-262
213
175
-168
64
198
-88
-90
170
-3
-145
129
39
-120
152
94
-214
-73
94
-91
-118
175
116
-85
187
260
89
146
296
219
97
361
514
310
320
414
221
208
283
3
-194
31
8
-326
-266
-22
-88
-140
-3
-256
-296
161
-72
-527
-147
743
1836
3275
4591
4407
2881
1872
1214
599
667
446
-183
-189
-54
-310
-342
-199
-267
-426
-375
-200
-267
-236
-144
-286
-271
-134
-233
-352
-239
-103
-191
-208
-67
-181
-199
44
-64
-229
46
41
-250
-22
186
-66
-88
256
90
-151
114
236
208
99
231
234
115
306
224
157
334
427
236
224
349
16
23
318
159
-17
127
182
-76
-150
147
43
-256
-37
49
-142
-21
150
-38
-60
128
-14
-114
133
87
-137
68
182
-80
-157
135
141
-63
142
209
-10
171
314
26
-49
70
104
46
109
123
-47
67
142
-24
-4
166
51
-80
83
14
-77
35
71
-27
29
261
59
-133
105
100
-64
125
222
73
128
321
140
-139
365
552
139
450
688
329
230
382
217
12
219
170
-184
-150
22
-138
-119
193
-55
-279
74
-39
-246
-126
-249
-127
706
2175
3710
4587
4344
3004
1660
1166
938
449
64
69
-85
-330
-75
-69
-325
-204
-75
-276
-319
-85
-107
-270
-201
-75
-162
-113
-41
-171
-110
-52
-92
-110
22
148
-66
-64
101
-52
-25
202
41
-74
271
277
33
255
359
115
240
449
220
152
350
371
184
224
387
247
290
456
294
183
342
243
-28
139
254
34
6
144
42
-63
97
1
-177
51
184
-42
-50
184
19
-119
197
134
-102
122
212
-40
27
368
201
-82
190
226
-59
195
277
-35
134
240
112
101
211
200
-67
50
259
-14
-111
223
210
-3
154
132
-74
0
113
-37
8
260
14
-140
170
194
-99
-28
182
77
133
393
165
-113
253
409
213
312
372
226
294
466
240
20
195
90
-262
-102
99
-215
-262
73
-55
-283
-133
-58
-341
-186
127
-452
-418
683
1657
3033
4564
4425
2928
1894
1278
545
328
439
80
-224
-62
-231
-450
-197
-119
-238
-324
-305
-359
-336
-110
-226
-356
-194
-132
-320
-348
-206
-157
-149
5
64
-155
-54
172
-48
-109
154
-35
-189
183
265
-31
40
231
10
7
299
199
-1
268
379
72
210
446
143
84
493
411
142
282
326
135
180
322
51
-19
219
28
-74
140
113
-59
-40
5
-112
-35
178
-3
-189
2
87
-33
-1
120
-38
-91
9
-45
49
216
119
-82
29
196
29
-40
219
88
-121
115
95
-26
64
64
-24
27
199
65
-155
12
70
-221
-16
251
-55
-79
138
-35
-148
84
46
-210
-68
147
-156
-236
76
14
-73
192
222
47
49
73
174
241
269
288
296
389
328
206
327
315
12
-34
87
-146
-252
-86
-149
-338
-300
-22
-56
-139
-2
-108
-358
-334
286
1252
2653
4209
4512
3539
2586
1477
578
757
549
-106
-130
-77
-354
-393
-112
-235
-542
-298
-111
-417
-342
-111
-316
-373
-182
-356
-471
-173
-207
-445
-235
-30
-252
-341
-111
-102
-243
-53
-63
-259
-88
95
-72
-158
30
116
111
224
201
-38
-26
219
145
15
248
107
17
352
348
149
202
273
124
82
183
81
-114
18
-5
-285
-91
92
-169
-298
-163
-114
-160
-16
-63
-221
-42
35
-189
-246
21
-25
-201
29
60
-226
-79
140
-51
-54
61
-46
-131
21
31
-148
-22
113
-77
-130
59
18
-180
-50
24
-239
-104
110
-150
-150
65
-98
-189
65
125
-188
-201
37
-45
-44
60
-88
-205
-35
69
-133
-68
227
24
-101
322
182
-82
263
313
101
317
562
245
163
510
360
120
249
106
-206
-111
12
-167
-118
79
-65
-262
-91
43
-143
-78
-44
-405
-195
945
2188
3476
4766
4347
2719
1742
1135
732
537
367
-29
-259
-22
-66
-318
-252
-109
-293
-372
-129
-225
-350
-116
-118
-361
-205
13
-316
-315
3
-147
-276
-60
-2
-126
-75
24
-19
-50
96
42
-92
81
118
4
106
218
96
120
303
215
132
351
311
76
302
437
242
236
454
406
105
225
244
-64
-37
120
-26
-265
-63
76
-132
-50
-12
-257
-142
90
-212
-407
-153
-223
-443
-158
-12
-360
-301
-29
-314
-418
-27
-117
-357
-104
-40
-281
-197
90
-147
-291
63
-42
-340
-41
124
-217
-173
69
-105
-138
-7
-159
-213
-48
-28
-249
-130
121
-100
-197
12
-22
-138
44
49
-200
-68
120
-193
-188
209
283
447
586
364
36
124
368
218
250
502
377
89
220
302
162
387
598
271
-34
157
72
-203
-10
91
-113
-99
49
-68
-183
-183
-170
280
1654
3283
4288
4346
3315
2050
1143
884
687
186
119
63
-183
-168
-70
-267
-393
-76
-69
-412
-22
258
-239
-184
71
-305
-353
58
57
-234
-34
259
73
206
440
162
123
467
393
182
333
318
193
402
629
329
245
661
462
159
491
599
374
466
545
357
343
517
460
360
633
651
279
315
487
315
152
365
313
34
190
174
51
152
165
76
58
239
158
-40
223
287
55
161
397
118
-58
332
224
10
242
315
108
175
361
108
124
386
227
81
242
262
84
254
364
68
106
314
170
37
227
289
81
219
367
81
1
235
198
20
193
267
1
17
274
103
-21
305
308
238
405
350
212
246
465
421
242
549
603
314
497
581
280
186
271
126
17
179
3
-148
74
70
-85
-14
171
17
-156
84
-72
-301
621
1969
3100
4423
4653
3263
2071
1416
884
509
355
210
-140
-137
68
-208
-399
5
-35
-319
-137
-40
-273
-257
-72
-191
-191
10
-98
-275
-23
-94
-265
-109
16
53
-84
16
43
-171
-78
141
20
-36
206
55
-25
273
266
64
164
388
145
218
422
159
137
312
384
155
323
579
162
104
377
140
-20
341
241
-111
155
333
24
-55
167
66
-108
176
188
-114
122
366
126
27
181
149
75
242
213
55
247
335
-17
17
350
145
49
297
119
-115
244
343
120
108
233
133
-117
170
239
-79
121
255
-53
33
177
-34
24
160
21
-62
115
113
-79
-5
133
-2
-204
-49
134
77
177
123
-56
106
331
186
16
329
390
138
425
553
85
225
675
338
46
294
200
-117
-56
5
-183
-139
-8
-205
-214
25
-173
-360
-62
-58
-379
110
1457
2663
3871
4616
3807
2513
1580
943
620
327
57
-220
-317
-197
-315
-563
-316
-63
-380
-424
-129
-353
-555
-153
-130
-473
-228
-75
-382
-338
-176
-296
-342
-211
-129
-192
-131
-115
-250
-77
78
-140
-209
76
67
-159
83
324
63
-82
124
114
19
205
170
1
133
278
160
98
291
234
125
230
155
-10
63
167
-21
-91
-27
-164
-164
40
-20
-199
-87
-15
-232
-174
60
-86
-161
65
-11
-236
-104
42
-83
-153
-60
-102
-40
119
85
-114
-98
119
-40
-21
120
-52
-19
115
-41
-188
77
106
-148
-13
209
-127
-261
114
32
-154
-22
80
-131
-113
118
-99
-200
9
-15
-123
37
159
-27
-36
260
222
-51
105
273
204
323
434
359
300
384
275
100
240
207
-42
3
-27
-326
-262
-11
-187
-322
-155
-190
-295
-194
-34
-270
-552
97
1125
2270
3982
4669
3659
2598
1713
786
556
523
68
-282
-133
-155
-418
-295
-198
-388
-462
-246
-355
-521
-279
-227
-329
-198
-170
-326
-238
-163
-343
-329
-72
-139
-398
-251
22
-263
-382
48
-149
-398
54
89
-232
-52
94
-153
-40
168
9
-10
137
92
-80
54
232
51
104
304
80
-15
277
201
-141
44
101
-168
-49
-17
-167
-182
-56
-87
-302
-147
13
-254
-173
96
-199
-321
-22
-111
-207
27
-44
-211
-52
110
-197
-281
62
-44
-232
-11
59
-207
-158
87
-63
-239
36
-66
-305
58
75
-282
-193
46
-46
-252
-181
-90
-200
-148
-37
-209
-254
19
-173
-326
-21
-89
-350
-130
73
-93
-67
159
35
-202
107
144
-132
207
406
112
156
339
58
-107
89
-48
-360
-211
-123
-343
-302
-82
-204
-512
-343
-191
-403
-297
-233
-550
-387
524
1612
2990
4330
4167
2867
1747
850
403
387
293
-163
-523
-320
-362
-592
-390
-259
-439
-452
-299
-475
-511
-219
-271
-627
-477
-159
-480
-553
-271
-491
-632
-168
-89
-486
-345
-62
-278
-416
-106
-160
-367
-36
0
-308
-158
44
-146
-215
31
67
-131
-22
78
-61
9
107
-61
-73
172
83
-64
68
60
-133
-125
-40
-209
-159
-63
-226
-300
-106
-66
-316
-280
-107
-280
-332
-53
-207
-429
-98
-68
-458
-282
52
-197
-191
25
-151
-217
-56
-50
-254
-130
35
-216
-158
9
-256
-343
24
128
-263
-172
40
-227
-190
-11
-142
-253
-65
-56
-281
-146
-2
-261
-253
58
-120
-362
-162
-2
-229
-163
7
-288
-144
148
-88
-158
142
176
-11
96
244
164
242
360
123
33
138
134
-163
-363
-13
-193
-449
-107
-260
-586
-311
-76
-316
-329
-82
-348
-662
-346
207
1136
2702
4064
4194
3308
2247
1027
378
420
133
-220
-227
-294
-570
-420
-231
-475
-566
-469
-534
-557
-348
-411
-551
-357
-327
-677
-607
-151
-282
-540
-297
-239
-382
-396
-262
-203
-379
-236
-169
-369
-248
-71
-187
-208
-41
-224
-234
117
-13
-209
101
130
-251
-49
268
65
-89
22
75
25
223
248
-37
52
148
-289
-267
201
-4
-290
-91
-10
-205
-199
-66
-161
-115
-14
-165
-163
49
50
-214
-154
80
-116
-205
59
-84
-245
-54
-28
-106
-59
25
-20
26
91
-75
-118
91
76
-203
-151
93
-97
-177
117
-35
-344
-6
128
-254
-68
43
-325
-125
85
-131
-117
-185
-208
-73
-112
-54
-102
-208
-104
-156
-240
16
129
-56
8
155
-15
-86
214
188
90
412
346
64
190
262
-3
-115
-54
-181
-359
-144
-98
-454
-391
-115
-260
-429
-199
-178
-346
-372
-390
75
1361
3012
4116
4183
3438
2208
1010
643
673
131
-226
-276
-467
-463
-369
-438
-626
-544
-404
-571
-492
-354
-570
-602
-322
-346
-590
-401
-352
-643
-445
-219
-513
-569
-305
-364
-466
-276
-256
-470
-332
-177
-317
-360
-179
-264
-408
-78
-174
-350
-60
35
-117
-242
-18
37
-266
-60
145
-211
-96
196
-195
-309
60
-116
-318
-86
-177
-399
-295
-151
-362
-463
-196
-259
-520
-306
-191
-475
-319
-85
-474
-449
-50
-258
-430
-234
-181
-362
-233
-71
-308
-357
-123
-192
-369
-108
98
-242
-287
-40
-298
-290
20
-148
-369
-178
32
-216
-310
-41
-155
-328
-111
-145
-414
-140
28
-273
-208
-57
-230
-255
-184
-282
-271
-163
-176
-268
-134
137
9
-215
-54
21
-107
74
272
30
102
436
138
-32
223
75
-178
-119
-95
-347
-353
-141
-377
-493
-185
-266
-389
-215
-263
-386
-402
-367
-530
111
1812
3083
4082
4251
2955
1702
1006
675
362
-67
-42
-198
-537
-397
-368
-599
-488
-331
-538
-521
-311
-525
-743
-372
-179
-496
-518
-272
-374
-474
-292
-409
-470
-226
-210
-426
-435
-189
-301
-432
-123
-137
-295
-60
-25
-306
-191
94
-107
-187
93
35
-113
100
124
-173
-24
264
29
-63
184
110
-102
24
103
-146
-167
40
-191
-388
-86
-184
-462
-154
-77
-343
-230
-103
-331
-375
-231
-257
-307
-209
-112
-292
-282
-140
-299
-294
-79
-112
-356
-310
-102
-219
-203
-35
-234
-285
-122
-186
-296
-178
-6
-222
-301
-58
-189
-315
-88
-100
-271
-171
-137
-303
-198
12
-209
-323
-23
-147
-393
-143
-79
-327
-226
-37
-232
-265
40
39
-135
54
137
-95
-36
211
129
45
274
275
22
162
264
-212
-196
99
-255
-362
-129
-209
-406
-289
-194
-365
-340
-174
-333
-442
-333
-507
-124
1285
2848
4040
4308
3384
2087
1017
679
616
50
-117
-62
-403
-388
-242
-503
-523
-380
-459
-461
-271
-283
-527
-454
-279
-420
-513
-232
-191
-446
-291
-110
-366
-444
-232
-285
-219
39
-131
-310
-17
26
-276
-180
66
-46
-180
42
122
-110
-20
164
-11
-34
49
-57
-34
180
167
-73
103
234
-29
-71
4
-30
-148
-57
-66
-287
-156
-81
-298
-309
-145
-244
-269
-42
-116
-374
-198
8
-241
-306
-19
-94
-263
-51
-84
-303
-58
81
-321
-194
210
-101
-197
108
-59
-302
-44
33
-205
-133
-98
-179
-123
-32
-141
-311
-140
-58
-239
-193
-100
-221
-237
-32
-128
-376
-221
-64
-231
-221
-16
-147
-304
-110
-36
-227
-27
169
-72
-117
133
104
-80
195
281
86
254
261
-137
-122
212
-83
-366
-129
-139
-406
-272
-147
-433
-342
-92
-365
-458
-65
-238
-686
-286
724
1948
3501
4574
3858
2473
1689
903
364
361
90
-391
-376
-238
-479
-556
-418
-437
-507
-412
-326
-602
-535
-233
-403
-446
-280
-380
-508
-243
-280
-600
-384
-155
-243
-329
-262
-226
-299
-215
-193
-329
-193
-5
-155
-224
8
-29
-286
-91
151
-132
-114
139
-77
-182
59
21
-188
47
149
-35
57
146
-65
-267
-6
-5
-338
-105
-18
-356
-289
-74
-255
-493
-246
-152
-433
-216
-66
-291
-291
-152
-235
-334
-108
-84
-269
-181
-51
-213
-288
-26
-65
-250
-100
-96
-317
-167
6
-298
-287
-37
-202
-296
-47
-87
-347
-167
-17
-244
-304
-113
-178
-294
-48
-117
-437
-244
-126
-441
-294
13
-209
-309
-261
-394
-270
-70
-168
-255
-192
-64
-93
-158
-19
-131
-207
98
147
-36
106
125
-79
-15
7
-149
-396
-329
-237
-502
-435
-228
-437
-558
-280
-363
-584
-393
-277
-545
-745
-182
837
2097
3764
4389
3404
2350
1464
523
313
385
-119
-510
-366
-477
-695
-504
-444
-755
-706
-361
-504
-694
-552
-434
-510
-508
-446
-527
-500
-394
-500
-614
-424
-341
-498
-368
-243
-518
-403
-162
-514
-545
-177
-224
-439
-295
-100
-263
-262
-39
-92
-197
-44
27
-229
-174
118
-148
-321
86
54
-124
168
60
-231
-81
-74
-311
-270
-77
-242
-426
-245
-197
-411
-452
-185
-182
-369
-271
-317
-414
-203
-210
-392
-246
-104
-323
-352
-97
-257
-364
-115
-127
-304
-235
-102
-298
-324
-3
-166
-314
-113
-234
-274
-153
-180
-247
-203
-55
-274
-502
-159
-73
-348
-222
-112
-366
-417
-130
-195
-393
-130
-142
-470
-293
-78
-351
-392
-178
-298
-301
-103
-188
-293
-135
35
-109
-177
-16
-132
-111
93
-16
-115
183
371
-26
-51
146
-193
-220
7
-262
-544
-326
-185
-478
-461
-185
-364
-513
-381
-294
-460
-691
-321
488
1697
3325
4312
3954
2967
1913
754
300
324
-84
-328
-187
-442
-705
-434
-514
-806
-637
-361
-591
-769
-372
-416
-640
-414
-445
-737
-530
-276
-544
-597
-324
-362
-555
-387
-373
-671
-375
-139
-356
-407
-205
-142
-376
-214
-61
-333
-242
3
-159
-194
71
-36
-198
10
-39
-232
2
223
-10
-84
139
18
-173
-4
-12
-229
-243
-150
-214
-325
-201
-265
-490
-287
-82
-254
-310
-229
-365
-314
-51
-254
-410
-154
-230
-450
-195
-90
-421
-275
65
-128
-349
-142
-77
-296
-196
-21
-215
-241
-15
-183
-392
-246
-106
-227
-254
-39
-165
-397
-278
-256
-321
-86
-90
-390
-272
-90
-284
-359
-100
-236
-537
-197
-83
-375
-237
2
-320
-461
-75
-126
-204
36
-33
-238
-80
50
-166
-7
338
177
46
209
134
-145
-46
30
-341
-461
-232
-240
-468
-334
-220
-545
-525
-228
-487
-553
-180
-412
-746
-141
1120
2410
3793
4460
3423
2063
1337
577
243
267
-49
-549
-575
-286
-574
-644
-446
-670
-720
-464
-403
-657
-616
-379
-539
-620
-347
-543
-760
-305
-244
-527
-394
-258
-443
-481
-210
-258
-477
-317
-166
-365
-295
-30
-312
-381
-16
-23
-175
-21
12
-183
-46
76
-131
-182
-3
-12
-90
64
-5
-151
27
46
-177
-186
-41
-155
-210
-74
-191
-390
-362
-193
-248
-375
-184
-136
-363
-273
-224
-437
-293
-100
-273
-373
-169
-213
-398
-178
-102
-294
-197
15
-206
-327
-45
-32
-144
-34
18
-190
-124
66
-160
-275
-116
-56
-132
-112
-30
-166
-210
-49
-200
-322
-11
-107
-414
-124
1
-255
-220
-66
-203
-215
-43
-132
-211
-125
32
12
-16
63
-28
-31
193
250
50
181
293
30
-36
32
-126
-228
-144
-246
-403
-298
-234
-447
-401
-185
-404
-450
-285
-444
-538
-455
-129
595
1975
3661
4358
3813
2670
1322
436
549
467
-214
-328
-201
-498
-719
-508
-399
-553
-409
-343
-637
-536
-342
-596
-673
-375
-384
-581
-409
-320
-582
-593
-347
-355
-423
-296
-284
-485
-441
-266
-376
-294
-136
-272
-284
-103
-135
-344
-162
7
-258
-128
126
-230
-291
113
19
-292
-40
72
-94
-36
41
-5
-160
-45
-1
-335
-198
-13
-296
-320
-210
-357
-461
-240
-230
-446
-248
-105
-377
-328
-75
-280
-416
-202
-287
-446
-191
-139
-456
-325
-84
-304
-446
-202
-143
-412
-257
-125
-430
-340
-59
-233
-305
-44
-226
-513
-213
-129
-427
-359
-130
-352
-506
-184
-236
-602
-358
-172
-500
-356
-81
-352
-518
-274
-288
-418
-232
-154
-249
-197
-17
-135
-363
-89
32
-240
-56
166
-37
-114
-2
-124
-233
-43
-210
-527
-389
-354
-562
-482
-296
-470
-594
-308
-355
-646
-402
-408
-826
-427
762
2040
3367
4215
3558
2168
1349
743
199
74
-20
-465
-646
-411
-571
-764
-493
-439
-693
-616
-380
-610
-718
-436
-487
-720
-553
-338
-550
-534
-253
-396
-536
-307
-282
-414
-221
-110
-393
-427
-197
-293
-335
-154
-202
-288
-34
-42
-360
-158
76
-162
-172
147
74
-195
-27
33
-210
-49
227
-8
-230
0
15
-299
-191
-76
-315
-273
-97
-333
-395
-124
-278
-407
-200
-149
-384
-369
-63
-305
-498
-192
-242
-376
-215
-122
-293
-258
22
-191
-287
25
-63
-240
-98
39
-147
-166
56
-103
-302
-58
51
-273
-206
-70
-284
-238
-87
-237
-327
-77
-57
-297
-166
-114
-355
-163
17
-279
-364
-106
-175
-375
-148
-72
-419
-350
-87
-269
-282
-1
-55
-260
-153
22
-55
-35
241
95
-76
326
250
-62
97
37
-180
-121
-158
-399
-498
-277
-217
-500
-399
-279
-556
-437
-98
-248
-532
-534
-153
814
2250
3751
4254
3524
2667
1512
533
579
359
-290
-316
-292
-587
-588
-341
-471
-648
-467
-491
-657
-455
-262
-586
-666
-277
-382
-562
-319
-370
-667
-451
-153
-489
-506
-124
-314
-479
-189
-228
-418
-207
-54
-239
-240
32
-101
-277
9
44
-141
49
142
-52
-20
183
46
-107
188
227
5
89
158
65
22
78
47
-78
51
71
-229
-244
-82
-181
-181
7
-128
-306
-122
-121
-257
-164
-136
-251
-142
34
-103
-163
-59
2
-102
-98
20
-85
-111
62
1
-208
9
47
-199
2
124
-126
-186
77
-66
-237
34
-36
-192
-38
53
-149
-158
64
-74
-309
-83
76
-230
-150
109
-171
-237
26
-88
-280
-84
29
-174
-126
56
-162
-159
186
40
-93
176
134
-38
185
345
174
180
331
105
30
246
63
-184
-149
-164
-325
-320
-161
-302
-491
-317
-258
-463
-340
-171
-419
-627
-361
230
1319
3129
4360
3965
2931
1956
778
391
527
17
-355
-226
-367
-608
-361
-346
-650
-478
-337
-510
-495
-362
-354
-535
-417
-262
-456
-437
-257
-392
-504
-225
-178
-395
-264
-101
-330
-286
-37
-326
-411
-37
6
-215
-135
38
-106
-105
46
4
-60
-5
139
-11
-49
138
-13
-9
236
138
-61
180
235
-51
29
205
-131
-250
76
-92
-222
-1
-95
-259
-135
-51
-207
-246
-94
-204
-330
-67
-11
-292
-150
7
-258
-131
-52
-332
-232
22
34
-150
-41
21
-185
-115
2
-90
-201
-21
-33
-290
-87
79
-196
-238
50
-54
-265
-30
32
-309
-202
67
-207
-221
-13
-131
-225
-75
-100
-252
-130
-39
-184
-158
14
-66
-105
157
177
-189
-81
257
63
59
337
268
166
236
110
11
120
68
-125
-228
-57
-104
-418
-233
-64
-372
-355
-113
-347
-482
-172
-234
-621
-163
886
1973
3597
4627
3881
2533
1652
874
385
339
-2
-444
-248
-137
-538
-571
-394
-520
-571
-379
-368
-623
-496
-258
-525
-545
-243
-384
-517
-283
-312
-506
-342
-166
-407
-498
-231
-265
-436
-183
-10
-276
-211
-22
-198
-178
-16
-66
-184
20
103
-104
1
80
-56
-104
38
9
-132
119
182
-100
13
152
-39
-123
31
-7
-193
-145
-193
-317
-181
-81
-368
-393
-22
-92
-402
-343
-80
-203
-348
-128
-208
-308
-86
-143
-367
-203
-47
-260
-262
-31
-167
-290
-9
-23
-209
-126
-79
-224
-196
-26
-210
-278
-7
-63
-320
-149
-37
-376
-314
-39
-193
-284
-159
-109
-207
-137
-110
-345
-195
-51
-261
-282
-177
-214
-307
-59
5
-272
-79
195
-43
-205
153
163
-61
251
317
39
111
201
-66
-171
28
-220
-415
-151
-145
-362
-344
-225
-390
-496
-219
-162
-384
-338
-452
-592
191
1572
2882
4002
4202
3105
1748
924
594
349
13
-109
-300
-543
-386
-392
-640
-467
-351
-667
-610
-298
-560
-700
-368
-441
-629
-347
-265
-531
-446
-285
-478
-546
-279
-306
-533
-244
-195
-544
-323
-67
-305
-381
-79
0
-246
-183
-17
-231
-202
71
-66
-159
66
-76
-212
24
-46
-124
10
120
25
-161
34
16
-222
-143
-85
-299
-358
-99
-241
-463
-162
-205
-454
-219
-189
-394
-255
-99
-349
-394
-256
-318
-262
-122
-43
-290
-338
12
-118
-330
-51
8
-230
-167
-47
-136
-113
-20
-172
-214
0
-106
-336
-88
-27
-408
-280
-27
-274
-343
-82
-180
-442
-212
-13
-236
-295
-187
-289
-382
-167
-162
-417
-268
-161
-370
-290
-132
-335
-374
-1
-54
-296
-83
2
-200
-78
133
-65
-16
353
207
-65
52
-1
-237
-309
-210
-268
-415
-287
-290
-525
-480
-336
-467
-436
-228
-356
-609
-565
-368
244
1704
3331
4183
3976
2997
1770
762
487
413
-113
-271
-298
-599
-501
-467
-689
-672
-480
-450
-695
-565
-354
-601
-576
-373
-534
-556
-350
-438
-583
-480
-360
-496
-495
-343
-354
-507
-449
-192
-372
-330
-210
-415
-278
-57
-162
-235
-17
-79
-276
-33
9
-254
-167
73
-51
-173
63
33
-213
-15
73
-179
-105
41
-133
-215
-41
-85
-418
-322
-91
-291
-242
-46
-229
-446
-227
-101
-338
-189
-105
-431
-368
-155
-294
-336
-225
-263
-382
-246
-107
-226
-290
-240
-223
-321
-195
-73
-337
-217
10
-411
-501
-92
-175
-422
-245
-153
-362
-236
-66
-352
-402
-158
-268
-444
-249
-186
-360
-303
-197
-292
-324
-121
-226
-514
-254
-182
-492
-256
-41
-312
-319
-72
-111
-217
-25
34
-255
-189
176
1
-164
292
302
-26
81
112
-97
-79
-19
-358
-423
-140
-316
-543
-338
-312
-559
-497
-253
-432
-459
-197
-672
-609
895
2200
3392
4459
3887
2305
1309
819
433
141
-25
-200
-572
-467
-374
-814
-737
-427
-548
-637
-422
-463
-748
-509
-345
-698
-603
-286
-467
-593
-360
-326
-522
-397
-269
-497
-449
-229
-364
-404
-184
-212
-469
-299
-59
-302
-297
69
-54
-299
42
96
-310
-98
169
-121
-114
179
4
-215
62
126
-107
-6
94
-110
-179
-77
-115
-207
-184
-207
-307
-221
-118
-304
-307
-74
-182
-418
-265
-95
-359
-439
-68
-214
-370
-70
-200
-329
-95
-81
-289
-215
-56
-246
-250
-52
-160
-258
-123
-183
-354
-133
-12
-238
-239
-55
-138
-407
-275
-28
-266
-267
-10
-187
-307
-123
-235
-351
-95
-103
-378
-267
-91
-245
-294
-97
-87
-326
-155
22
-215
-46
166
-141
-178
169
141
58
242
221
46
90
228
12
-130
70
-135
-430
-165
-135
-435
-327
-155
-367
-431
-167
-292
-424
-232
-384
-681
-38
1336
2608
3992
4554
3460
2005
1217
705
273
58
-63
-333
-512
-372
-477
-602
-372
-365
-630
-571
-379
-602
-692
-389
-419
-573
-397
-401
-581
-368
-304
-601
-490
-247
-381
-492
-366
-341
-437
-287
-97
-313
-454
-81
-63
-359
-114
12
-257
-158
118
-70
-225
39
30
-199
-22
102
-112
-50
84
-127
-117
120
-55
-252
-70
-94
-367
-353
-102
-198
-310
-21
-114
-343
-107
-100
-289
-265
-201
-274
-312
-112
-166
-293
-70
-68
-324
-150
74
-168
-236
-8
-64
-178
23
21
-224
-127
119
-80
-215
16
-71
-260
-78
-54
-238
-87
-32
-283
-233
-25
-90
-291
-194
34
-171
-120
104
-236
-345
-9
-116
-331
-18
2
-355
-239
52
-67
-33
183
-81
-213
142
252
40
228
379
10
-63
177
64
-218
-76
-53
-418
-342
-92
-258
-312
-104
-259
-486
-255
-154
-358
-377
-458
-203
857
2368
3855
4375
3738
2530
1283
702
679
214
-187
-61
-348
-585
-251
-224
-525
-437
-313
-502
-508
-300
-390
-456
-209
-278
-516
-343
-281
-472
-304
-95
-193
-351
-238
-207
-314
-148
-55
-265
-237
52
-161
-286
54
120
-124
-101
106
-2
-54
188
115
-76
119
207
-83
-20
267
28
-52
318
234
-18
178
72
-191
-49
79
-29
-109
-60
-106
-213
-141
-95
-189
-105
48
-105
-239
0
6
-176
-29
-18
-214
-93
75
-11
-112
-47
8
-194
-118
174
-62
-88
192
-24
-120
63
-43
-126
55
119
-154
-174
59
-36
-124
14
6
-147
-52
97
-121
-111
140
-160
-301
13
-80
-201
52
4
-210
-41
-29
-215
-219
-44
-75
-177
98
236
44
-34
114
129
172
350
309
287
461
406
220
247
367
162
-47
90
-107
-368
-192
-77
-261
-234
-25
-267
-416
-190
-188
-517
-480
154
990
2345
4002
4488
3557
2609
1636
616
568
553
-89
-275
-156
-362
-467
-373
-401
-479
-411
-266
-472
-618
-233
-279
-519
-249
-252
-528
-405
-267
-490
-322
-91
-361
-291
-88
-236
-327
-193
-101
-273
-282
-1
-77
-256
16
6
-217
15
139
-47
96
234
-19
-22
175
150
-1
181
393
39
-15
320
50
-125
193
89
-162
-72
-13
-176
-194
-83
-259
-270
-25
-115
-247
-47
-26
-297
-187
33
-194
-328
-123
-152
-312
-132
7
-232
-217
34
-70
-274
-160
-24
-245
-165
71
-173
-271
4
-99
-224
-1
-83
-234
-57
39
-250
-214
69
-199
-236
9
-193
-279
-136
-168
-306
-160
76
-182
-367
-18
-90
-406
-150
-13
-234
-316
-80
-50
-244
-23
28
-204
16
150
-126
-77
224
45
-53
416
400
105
247
231
0
-86
-4
-83
-261
-181
-190
-309
-204
-126
-311
-291
-56
-232
-330
-175
-349
-165
1071
2448
3691
4595
3987
2541
1458
931
613
221
63
-106
-386
-382
-238
-312
-469
-278
-240
-515
-350
-243
-548
-460
-203
-316
-370
-228
-277
-408
-367
-240
-240
-287
-169
-227
-342
-155
-111
-219
-71
-12
-289
-171
177
-37
-129
193
170
-71
59
302
126
60
293
201
-22
147
356
192
266
416
183
116
286
167
-57
44
48
-109
90
89
-264
-132
155
-7
-159
-3
28
-163
-145
-43
-206
-99
146
-41
-164
49
11
-209
-6
144
-84
-62
117
-18
-89
112
157
-18
16
152
-20
-51
180
24
-98
76
64
-63
-32
132
-50
-61
221
6
-116
131
101
-118
6
163
-79
-70
179
-52
-127
138
-2
-174
88
174
-59
5
134
-18
-31
229
219
37
150
260
112
200
458
439
500
541
311
127
272
298
-41
-87
58
-145
-140
76
-140
-273
-16
-4
-215
-115
80
-153
-441
279
1570
2844
4250
4856
3681
2195
1564
932
593
500
117
-160
-118
-77
-323
-332
-118
-251
-345
-163
-161
-256
-162
-172
-272
-239
-70
-187
-353
-142
-130
-227
-79
-3
-197
-124
54
-87
-78
92
37
-72
101
208
21
47
225
73
5
283
295
61
213
349
165
149
290
222
157
386
355
94
227
296
59
72
207
36
-184
18
171
-103
-106
97
-81
-175
85
-8
-277
1
59
-246
-37
178
-124
-154
101
-28
-112
82
81
-97
28
152
-39
-14
198
100
-39
137
71
-92
18
106
64
-54
44
-4
-167
54
34
-139
24
80
-168
-171
50
-111
-116
162
54
-187
-105
83
-93
-161
143
78
-158
-7
77
-67
38
188
26
30
225
99
7
252
306
208
315
358
111
133
419
71
-162
119
-43
-297
-124
-21
-233
-303
-72
-156
-344
-75
-70
-447
-357
-16
601
2207
3981
4581
3848
2679
1617
758
584
486
-62
-269
-111
-328
-545
-297
-334
-577
-334
-220
-497
-449
-221
-427
-531
-201
-269
-462
-243
-117
-389
-457
-123
-176
-391
-186
-165
-371
-216
-47
-241
-246
19
-83
-226
56
159
-99
42
243
-71
0
312
93
-27
185
150
-30
62
180
73
70
228
137
-102
-34
8
-221
-135
29
-232
-272
-50
-185
-326
-168
-163
-306
-179
-19
-270
-345
-24
-192
-382
-33
14
-327
-163
110
-291
-233
187
-53
-229
-21
-3
-204
-174
26
-81
-210
-25
-61
-142
96
38
-235
-138
-14
-166
-204
81
-29
-301
-108
-98
-292
-179
-58
-292
-265
85
-119
-359
-72
-76
-354
-214
-17
-151
-154
45
84
-100
-18
182
52
113
310
180
231
360
1
-28
277
55
-249
-142
-69
-378
-438
-167
-352
-490
-231
-302
-486
-257
-110
-387
-579
-417
180
1380
3066
4294
4081
3065
2094
1046
438
531
236
-365
-387
-348
-574
-473
-378
-599
-513
-278
-470
-641
-430
-342
-588
-514
-270
-496
-483
-227
-410
-535
-292
-226
-416
-320
-248
-434
-338
-159
-306
-365
-105
-124
-306
-126
5
-198
-266
33
71
-150
59
196
-97
-43
192
-20
-66
242
130
-80
197
196
-146
-14
91
-175
-188
25
-69
-300
-137
-89
-320
-209
-92
-265
-256
-90
-227
-347
-118
-86
-274
-219
-114
-249
-292
9
-54
-435
-145
-5
-255
-91
45
-148
-220
30
-71
-339
-78
75
-203
-157
48
-151
-208
47
-162
-354
30
-3
-258
-78
35
-183
-225
21
-151
-331
-94
-112
-290
-168
-15
-205
-323
-124
-158
-268
-101
-102
-205
-23
82
-107
-85
136
76
-119
121
352
116
201
369
130
34
223
91
-216
-64
-70
-402
-261
-83
-411
-434
-177
-307
-430
-225
-166
-466
-599
-260
487
1854
3589
4509
3974
2984
1955
793
521
635
34
-361
-157
-346
-593
-368
-351
-538
-452
-337
-558
-578
-326
-398
-464
-342
-263
-388
-388
-202
-402
-427
-220
-323
-439
-253
-88
-317
-320
-110
-244
-233
-15
-117
-248
16
82
-141
-28
171
-56
-154
274
232
-29
195
261
-2
75
242
91
114
306
132
-77
78
80
-155
-162
-16
-174
-189
62
-82
-253
-35
-47
-339
-146
68
-266
-271
-31
-117
-169
-11
-26
-245
-119
5
-147
-155
-4
-60
-179
40
-2
-252
-31
84
-202
-205
53
-88
-267
-13
-21
-225
-169
-114
-189
-195
9
-36
-244
-77
-18
-233
-133
-71
-283
-185
17
-104
-341
-149
75
-205
-161
85
-102
-188
47
38
-98
53
73
-31
197
296
70
177
394
264
55
177
216
-74
-120
-96
-220
-212
-149
-249
-236
-77
-156
-388
-246
10
-306
-550
-194
354
1310
3020
4400
4279
3273
2322
1243
644
739
209
-276
-110
-199
-466
-358
-204
-460
-510
-221
-319
-492
-334
-286
-355
-236
-162
-361
-368
-139
-248
-445
-197
-33
-288
-178
50
-231
-273
93
-12
-268
10
148
-57
-23
173
56
48
293
184
90
211
213
156
275
371
194
219
485
337
136
275
301
156
200
297
72
-74
156
165
-22
81
92
-141
-67
161
-41
-179
40
19
-173
-11
25
-245
-67
150
-96
-180
48
-6
-168
2
84
-89
-29
158
-58
-193
64
43
-76
107
164
-116
-100
209
16
-133
115
12
-150
-28
-43
-166
-91
68
-55
-132
3
-61
-157
-12
-14
-211
-102
22
-214
-228
146
113
-173
52
213
-133
-115
235
117
25
278
279
178
259
229
-11
-8
149
-116
-281
-61
-231
-406
-157
-206
-401
-264
-107
-326
-411
-53
-265
-726
-66
1144
2297
3817
4603
3644
2347
1573
794
365
394
156
-354
-410
-185
-370
-496
-316
-369
-499
-268
-202
-487
-370
-151
-403
-453
-188
-339
-576
-261
-85
-364
-331
-187
-245
-263
-80
-61
-330
-169
-59
-230
-87
0
-99
-87
76
155
33
78
200
-59
62
466
85
-85
217
169
53
176
305
125
49
269
122
-36
172
-4
-314
-84
87
-189
-235
23
-124
-283
-11
-89
-276
-77
-74
-284
-211
29
-164
-265
35
-48
-151
88
97
-132
-132
-34
10
8
140
122
-159
67
111
-244
-68
174
-55
-158
116
39
-132
162
130
-192
-64
99
-109
-106
97
-9
-146
10
31
-243
-88
141
-143
-195
97
-70
-249
5
-9
-244
-124
104
-38
-77
194
189
22
74
78
53
181
362
262
198
460
291
1
185
151
-213
-165
-6
-266
-348
12
-69
-381
-224
-145
-295
-278
-95
-249
-504
155
1221
2300
3960
4680
3602
2512
1636
661
447
504
26
-435
-300
-260
-565
-402
-259
-520
-521
-374
-457
-518
-362
-315
-565
-468
-248
-577
-483
-67
-256
-535
-312
-94
-368
-364
-101
-259
-263
-56
-202
-271
12
-62
-330
-103
75
-89
-104
118
78
-136
103
271
-88
-28
345
92
-10
414
285
-54
87
173
19
51
101
-140
-191
-15
-103
-250
-134
-118
-221
-157
-73
-195
-287
-141
-199
-321
-99
-45
-294
-274
-16
-220
-288
17
-123
-259
-70
-69
-241
-86
45
-161
-131
149
-35
-273
-16
28
-257
-290
-46
-103
-115
50
-67
-185
-150
-70
-223
-143
65
-275
-306
83
-27
-270
-133
-111
-215
-93
-34
-216
-271
-101
-64
-145
31
213
-31
-67
108
-16
48
320
303
199
328
363
36
-31
247
14
-232
-36
-101
-353
-237
-119
-339
-250
-62
-330
-326
-67
-208
-415
-379
80
955
2359
4041
4581
3716
2716
1701
653
557
559
-62
-295
-153
-420
-534
-198
-428
-643
-318
-253
-467
-363
-308
-539
-412
-167
-266
-427
-287
-270
-486
-339
-136
-281
-420
-192
-136
-367
-155
-97
-325
-233
-14
-36
-274
-4
237
-136
-11
261
-75
-35
303
129
-35
213
190
-58
114
279
60
123
304
-3
-150
104
32
-214
-18
15
-261
-180
-8
-174
-344
-171
-74
-219
-127
-131
-329
-122
-51
-318
-282
-41
-215
-410
-73
-61
-313
-199
-55
-123
-225
-45
-19
-254
-125
-11
-228
-171
60
-168
-244
-58
-199
-270
-49
1
-279
-220
-27
-178
-259
-90
-135
-401
-196
-9
-292
-305
-60
-246
-438
-98
-72
-312
-142
-82
-192
-51
139
1
-210
-18
81
28
241
283
83
56
140
-10
-78
91
-111
-324
-161
-173
-422
-390
-180
-400
-532
-226
-184
-439
-389
-300
-645
-419
617
1737
3233
4487
4039
2635
1752
1009
362
205
90
-240
-441
-325
-366
-608
-429
-268
-641
-658
-391
-539
-579
-356
-417
-567
-363
-249
-513
-458
-234
-476
-511
-191
-235
-413
-301
-245
-373
-269
-76
-279
-366
-53
-83
-324
-191
57
-110
-88
206
39
-136
49
139
-10
126
262
13
9
243
151
30
179
50
-173
30
71
-214
-193
8
-233
-411
-95
-107
-367
-178
-94
-390
-345
-110
-250
-351
-174
-172
-370
-269
-138
-319
-275
-38
-199
-361
-179
-171
-252
-137
-58
-242
-271
-41
-175
-323
-80
-110
-278
-42
-87
-395
-253
-110
-300
-424
-166
-122
-336
-212
-41
-320
-481
-117
-166
-337
-123
-201
-399
-182
-174
-348
-93
97
-239
-346
72
91
-124
77
273
95
145
221
-56
-49
83
-116
-309
-157
-179
-452
-353
-186
-378
-530
-293
-288
-504
-275
-196
-590
-636
-58
691
1811
3563
4449
3625
2594
1690
658
344
399
-79
-531
-314
-345
-619
-332
-255
-581
-628
-424
-483
-670
-411
-277
-496
-431
-313
-511
-656
-411
-294
-381
-176
-217
-503
-338
-225
-399
-306
-175
-326
-351
-87
-94
-331
-196
-3
-152
-104
135
1
-92
46
34
-117
41
305
13
-28
160
-38
51
247
104
-73
70
-2
-314
-142
22
-196
-326
-148
-139
-412
-271
-20
-215
-228
-66
-266
-331
-71
-75
-269
-134
-19
-165
-149
-75
-40
-48
33
36
-257
-66
222
-121
-168
74
-37
-139
61
-5
-296
-96
74
-178
-160
79
-138
-315
-3
-10
-275
-146
-68
-315
-277
5
-65
-188
-24
-23
-227
-129
0
-238
-282
-16
-189
-406
-43
27
-158
32
177
-2
-44
175
138
17
255
339
95
144
263
39
-56
41
-208
-378
-94
-110
-473
-296
-113
-400
-328
-69
-300
-394
-50
-328
-670
179
1423
2638
4042
4464
3457
2206
1364
682
290
285
131
-265
-354
-211
-398
-610
-418
-334
-508
-412
-280
-444
-450
-234
-351
-530
-290
-230
-457
-295
-195
-528
-366
-35
-264
-431
-150
-88
-348
-250
-69
-191
-234
28
-87
-300
116
186
-122
33
194
18
23
181
87
-31
223
310
-6
142
377
0
-115
253
139
-95
32
53
-147
-138
-11
-298
-292
29
-250
-383
1
-81
-328
-95
22
-254
-251
18
-135
-323
-64
-55
-317
-173
-41
-201
-228
-60
-56
-107
-60
-135
-203
-48
85
-95
-163
29
-39
-251
-86
-18
-203
-128
-8
-162
-190
-19
-72
-226
-128
-29
-270
-272
-30
-190
-181
24
-244
-265
8
-94
-224
-74
-7
-238
-173
186
93
-148
1
117
-11
178
420
219
224
382
77
-65
183
89
-217
-119
-66
-369
-313
-126
-221
-275
-151
-122
-281
-209
-71
-414
-606
75
1083
2305
3943
4600
3591
2453
1555
664
466
502
2
-394
-222
-185
-466
-422
-269
-470
-454
-246
-442
-496
-186
-237
-507
-353
-198
-397
-403
-208
-262
-388
-261
-257
-405
-160
-25
-317
-252
3
-164
-275
-45
35
-171
-125
140
-42
-205
105
205
74
146
98
-54
87
226
1
-42
254
134
-72
232
143
-203
106
188
-193
-201
-17
-178
-326
-106
-97
-330
-201
-66
-277
-305
-202
-248
-280
-112
-84
-358
-225
45
-188
-287
-72
-154
-278
-76
-32
-238
-238
-78
-151
-140
38
-89
-201
-55
-80
-301
-188
-21
-224
-235
26
-159
-417
-120
-61
-262
-121
-66
-304
-270
-36
-175
-310
-158
-112
-286
-196
-21
-279
-291
-12
-110
-187
130
75
-255
-76
161
49
20
258
241
70
187
118
-135
-40
-1
-260
-293
-203
-299
-481
-213
-46
-554
-460
-100
-363
-396
-192
-526
-585
566
2006
3225
4300
4091
2607
1475
949
505
140
12
-149
-453
-401
-336
-595
-629
-387
-460
-646
-544
-421
-538
-498
-300
-524
-584
-323
-401
-519
-334
-306
-562
-382
-173
-415
-427
-230
-227
-357
-187
-142
-362
-195
-39
-170
-186
-6
-37
-171
72
121
-167
-41
226
3
-129
150
105
-63
147
187
-60
-6
178
-23
-173
-40
-140
-237
-39
-87
-368
-273
-86
-281
-321
-78
-186
-371
-175
-176
-386
-202
-44
-226
-294
-120
-155
-315
-163
-27
-230
-237
14
-150
-208
20
-92
-220
-14
9
-315
-225
14
-177
-210
-82
-147
-238
-167
-100
-230
-152
-46
-272
-262
-35
-163
-354
-152
-61
-302
-229
-116
-347
-328
-76
-179
-393
-182
-73
-362
-239
-74
-292
-198
120
-20
-260
38
50
-116
117
205
151
213
234
51
-45
48
-11
-200
-197
-106
-316
-351
-114
-286
-415
-167
-165
-408
-348
-124
-289
-610
-259
554
1677
3302
4381
3948
2843
1926
889
326
382
109
-335
-279
-232
-552
-539
-350
-510
-571
-325
-448
-645
-437
-473
-724
-602
-423
-631
-655
-396
-576
-712
-380
-367
-535
-390
-331
-516
-463
-244
-437
-513
-189
-202
-357
-263
-113
-118
-214
-25
-36
-208
43
83
-132
-93
47
-67
-104
149
18
-216
74
134
-199
-83
-3
-263
-217
-79
-152
-315
-233
-135
-402
-296
-61
-289
-365
-221
-251
-378
-216
-71
-296
-204
-19
-252
-192
17
-128
-250
-41
3
-256
-198
22
-87
-137
46
-36
-212
5
139
-156
-107
124
-148
-252
60
-74
-303
-63
51
-176
-152
37
-157
-282
-19
-42
-288
-76
65
-217
-202
-40
-207
-148
66
-170
-270
-5
-8
-186
-29
192
24
-95
101
168
-12
183
386
122
250
441
114
62
238
131
-84
-137
-76
-192
-245
-94
-142
-268
-81
-71
-329
-193
-9
-323
-460
20
815
2153
3917
4690
3842
2701
1776
825
563
643
83
-285
-30
-173
-537
-332
-147
-358
-403
-244
-367
-466
-168
-196
-415
-288
-206
-356
-315
-136
-255
-311
-108
-183
-290
-106
-181
-298
-148
-45
-97
-90
95
27
-109
68
175
89
28
131
128
82
299
241
12
214
330
88
220
443
243
204
347
226
84
248
250
-3
24
79
-104
-90
175
124
-137
49
183
-144
-47
213
-20
-141
-2
-63
-91
135
148
-36
-57
73
-11
-110
73
107
-120
-34
228
7
-62
294
135
-33
274
111
-138
136
150
-110
-26
175
-16
-69
253
151
-149
-3
189
-23
-71
111
-78
-71
170
-37
-137
75
134
-46
-64
157
106
-1
256
296
-37
117
382
149
183
477
364
223
432
377
78
122
187
-118
-200
75
-77
-219
91
-44
-322
-71
-18
-280
-170
64
-287
-287
699
1888
3234
4583
4415
2763
1762
1285
659
413
259
-44
-255
-214
-222
-450
-370
-237
-464
-457
-212
-294
-464
-360
-244
-375
-441
-142
-233
-439
-149
-181
-451
-198
13
-299
-284
-6
-168
-302
40
5
-350
-157
93
4
52
191
-39
-108
256
213
-59
73
174
-6
-1
302
196
66
295
191
39
127
134
-48
-19
86
-132
-210
73
54
-279
-194
-52
-241
-218
37
-162
-377
4
14
-359
-113
126
-207
-263
70
-27
-196
1
-22
-142
-87
44
-103
-228
2
-51
-112
84
89
-127
-104
52
-118
-83
135
-125
-285
-2
0
-293
-110
122
-193
-204
23
-166
-196
-21
-137
-303
-161
41
-182
-247
-9
-110
-243
39
60
-220
22
119
-177
-25
326
227
130
356
296
-8
102
218
-61
-153
-41
-254
-426
-160
-209
-472
-261
-111
-372
-439
-202
-177
-368
-411
-217
442
1838
3441
4194
3903
3010
1693
654
625
606
-70
-314
-161
-385
-518
-354
-416
-445
-261
-444
-600
-286
-231
-533
-480
-183
-373
-555
-187
-117
-392
-263
-157
-454
-334
-28
-245
-360
-47
-44
-389
-182
141
-52
-85
79
-31
-60
206
107
-94
134
149
-59
34
310
177
4
276
256
7
199
287
-11
-3
186
-76
-365
-149
-114
-321
-188
-106
-302
-314
-160
-248
-343
-123
-159
-416
-219
-82
-265
-220
-59
-223
-348
-130
-157
-349
-123
59
-228
-232
-1
-100
-182
-14
-35
-230
-82
-30
-227
-128
28
-147
-298
-80
-75
-305
-127
-28
-220
-200
57
-162
-446
-60
-3
-279
-210
-32
-50
-193
-132
-117
-292
-106
34
-131
-102
48
-46
-113
246
134
-101
320
364
93
314
425
112
98
169
0
-84
-72
-99
-250
-184
-112
-366
-280
-22
-152
-362
-272
-107
-386
-605
35
985
2113
3832
4542
3744
2756
1679
660
534
562
-67
-346
-144
-267
-467
-277
-266
-555
-452
-258
-468
-511
-335
-415
-545
-349
-200
-442
-401
-273
-465
-415
-130
-236
-373
-90
-205
-470
-218
-50
-207
-136
27
-193
-324
-5
162
-64
-49
129
47
-38
127
182
-6
180
307
3
162
347
71
82
301
108
-87
194
65
-198
31
112
-94
-180
77
10
-240
-7
58
-202
-153
-18
-186
-204
24
-44
-210
-44
30
-158
-88
23
-121
-115
69
-25
-126
98
31
-89
10
52
-7
-65
74
54
-132
90
176
-283
-216
215
17
-192
116
79
-189
12
121
-61
5
27
-222
-133
184
59
-232
-15
96
-147
32
334
87
-117
258
242
-67
258
392
233
477
522
191
156
401
180
-164
44
52
-244
-165
-80
-267
-244
-50
-143
-316
-119
-29
-301
-288
-279
-12
1249
2835
4136
4410
3531
2443
1290
736
728
239
-190
-96
-183
-519
-370
-271
-527
-401
-222
-390
-437
-203
-305
-549
-285
-92
-359
-468
-246
-302
-402
-215
-248
-475
-351
-218
-312
-168
-68
-207
-194
-7
-42
-219
-66
62
-107
-69
132
-27
-96
176
83
-153
60
234
-12
-31
308
178
32
274
151
-66
36
45
-134
-66
49
-143
-215
-58
-110
-269
-149
-20
-216
-178
64
-128
-285
-9
2
-262
-98
43
-331
-288
26
-125
-146
-20
-80
-234
-25
113
-177
-70
105
-156
-159
70
-127
-248
5
11
-253
-162
30
-174
-186
10
-130
-362
-168
59
-164
-120
78
-195
-263
42
-39
-301
-137
65
-184
-118
213
-36
-114
38
-9
63
300
395
125
135
387
198
-77
82
124
-180
-186
-67
-270
-317
-102
-300
-478
-231
-226
-365
-204
-82
-461
-591
160
1123
2473
4144
4391
3190
2201
1313
497
391
320
-121
-370
-279
-349
-525
-407
-364
-595
-489
-229
-459
-599
-317
-310
-524
-361
-286
-537
-522
-269
-257
-411
-323
-238
-348
-295
-151
-359
-352
-74
-264
-413
-128
-62
-235
-48
69
-239
-150
173
-164
-276
161
141
-109
44
146
-53
-24
132
24
-64
104
74
-191
-73
9
-292
-229
-25
-215
-304
-80
-208
-453
-200
-138
-405
-305
-77
-239
-363
-156
-184
-383
-236
-109
-260
-206
-67
-282
-339
-75
-133
-312
-144
27
-256
-264
-4
-271
-333
-1
-101
-274
-101
-94
-274
-243
0
-90
-333
-94
-92
-366
-176
-56
-284
-286
-83
-233
-376
-192
-124
-293
-205
-54
-255
-195
22
-65
-189
16
116
-168
-13
186
-51
47
360
290
67
107
148
11
-29
3
-180
-264
-149
-338
-483
-199
-167
-539
-371
-81
-398
-381
-175
-504
-291
1049
2477
3598
4342
3857
2484
1392
815
480
202
3
-255
-504
-381
-407
-664
-483
-315
-542
-648
-373
-364
-639
-475
-307
-526
-517
-319
-464
-588
-311
-250
-467
-354
-256
-453
-436
-141
-308
-437
-91
-167
-352
-191
-85
-152
-139
-22
-108
-210
58
147
-134
12
202
-74
-23
295
35
-96
280
193
-76
106
127
-164
-101
73
-96
-273
-106
-125
-267
-60
-1
-302
-289
31
-104
-330
-68
-61
-436
-166
89
-217
-236
35
-72
-336
-123
28
-148
-87
-2
-147
-133
8
-64
-151
5
33
-161
-107
49
-115
-196
3
-126
-253
12
46
-215
-137
27
-185
-240
-93
-68
-129
-58
-25
-185
-36
56
-210
-203
6
